"sep=	"
ECL_S02_TimestampSync_Unix_CAL	ECL_S02_GSR_Range_CAL	ECL_S02_GSR_Skin_Conductance_CAL	ECL_S02_GSR_Skin_Resistance_CAL	ECL_S02_PPG_A12_CAL	
ms	no_units	uS	kOhms	mV	
1.7127117886551335E12	3.0	0.0939060939060939	10648.936170212766	1180.952380952381	
1.712711788674635E12	3.0	0.0939060939060939	10648.936170212766	1252.7472527472526	
1.7127117886941362E12	3.0	0.0939060939060939	10648.936170212766	1440.2930402930401	
1.7127117887136375E12	3.0	0.0939060939060939	10648.936170212766	1727.4725274725274	
1.7127117887331387E12	3.0	0.0939060939060939	10648.936170212766	2014.6520146520145	
1.71271178875264E12	3.0	0.09435009435009435	10598.823529411764	2202.9304029304026	
1.712711788772141E12	3.0	0.09435009435009435	10598.823529411764	2255.6776556776554	
1.7127117887916423E12	3.0	0.09435009435009435	10598.823529411764	2191.208791208791	
1.7127117888111436E12	3.0	0.09435009435009435	10598.823529411764	2066.6666666666665	
1.7127117888306448E12	3.0	0.09435009435009435	10598.823529411764	1933.3333333333333	
1.712711788850146E12	3.0	0.09435009435009435	10598.823529411764	1811.7216117216117	
1.7127117888696475E12	3.0	0.09435009435009435	10598.823529411764	1697.4358974358972	
1.7127117888891487E12	3.0	0.09435009435009435	10598.823529411764	1601.4652014652013	
1.71271178890865E12	3.0	0.0939060939060939	10648.936170212766	1523.0769230769229	
1.7127117889281511E12	3.0	0.0939060939060939	10648.936170212766	1456.4102564102564	
1.7127117889476523E12	3.0	0.0939060939060939	10648.936170212766	1406.5934065934066	
1.7127117889671536E12	3.0	0.0939060939060939	10648.936170212766	1375.8241758241757	
1.7127117889866548E12	3.0	0.0939060939060939	10648.936170212766	1367.032967032967	
1.712711789006156E12	3.0	0.0939060939060939	10648.936170212766	1372.8937728937728	
1.7127117890256572E12	3.0	0.0939060939060939	10648.936170212766	1388.278388278388	
1.7127117890451587E12	3.0	0.0939060939060939	10648.936170212766	1388.278388278388	
1.71271178906466E12	3.0	0.0939060939060939	10648.936170212766	1386.8131868131868	
1.7127117890841611E12	3.0	0.0939060939060939	10648.936170212766	1382.4175824175823	
1.7127117891036624E12	3.0	0.0939060939060939	10648.936170212766	1376.5567765567764	
1.7127117891231636E12	3.0	0.0939060939060939	10648.936170212766	1350.9157509157508	
1.7127117891426648E12	3.0	0.0939060939060939	10648.936170212766	1320.8791208791208	
1.712711789162166E12	3.0	0.0939060939060939	10648.936170212766	1287.9120879120878	
1.7127117891816672E12	3.0	0.0939060939060939	10648.936170212766	1269.5970695970695	
1.7127117892011685E12	3.0	0.0939060939060939	10648.936170212766	1268.8644688644688	
1.7127117892206697E12	3.0	0.0939060939060939	10648.936170212766	1260.8058608058607	
1.7127117892401711E12	3.0	0.09435009435009435	10598.823529411764	1254.9450549450548	
1.7127117892596724E12	3.0	0.0939060939060939	10648.936170212766	1260.07326007326	
1.7127117892791736E12	3.0	0.0939060939060939	10648.936170212766	1258.6080586080586	
1.7127117892986748E12	3.0	0.0939060939060939	10648.936170212766	1241.7582417582416	
1.712711789318176E12	3.0	0.0939060939060939	10648.936170212766	1226.3736263736264	
1.7127117893376772E12	3.0	0.09435009435009435	10598.823529411764	1216.8498168498168	
1.7127117893571785E12	3.0	0.09435009435009435	10598.823529411764	1204.3956043956043	
1.7127117893766797E12	3.0	0.0939060939060939	10648.936170212766	1197.8021978021977	
1.712711789396181E12	3.0	0.0939060939060939	10648.936170212766	1198.5347985347985	
1.7127117894156824E12	3.0	0.0939060939060939	10648.936170212766	1197.8021978021977	
1.7127117894351836E12	3.0	0.0939060939060939	10648.936170212766	1187.5457875457876	
1.7127117894546848E12	3.0	0.0939060939060939	10648.936170212766	1180.952380952381	
1.712711789474186E12	3.0	0.0939060939060939	10648.936170212766	1174.3589743589744	
1.7127117894936873E12	3.0	0.0939060939060939	10648.936170212766	1177.2893772893772	
1.7127117895131885E12	3.0	0.0939060939060939	10648.936170212766	1180.952380952381	
1.7127117895326897E12	3.0	0.0939060939060939	10648.936170212766	1169.230769230769	
1.712711789552191E12	3.0	0.0939060939060939	10648.936170212766	1151.6483516483515	
1.7127117895716921E12	3.0	0.0939060939060939	10648.936170212766	1142.857142857143	
1.7127117895911934E12	3.0	0.0939060939060939	10648.936170212766	1142.857142857143	
1.7127117896106948E12	3.0	0.0939060939060939	10648.936170212766	1145.7875457875457	
1.712711789630196E12	3.0	0.0939060939060939	10648.936170212766	1172.8937728937728	
1.7127117896496973E12	3.0	0.0939060939060939	10648.936170212766	1240.2930402930401	
1.7127117896691985E12	3.0	0.09435009435009435	10598.823529411764	1400.0	
1.7127117896886997E12	3.0	0.0939060939060939	10648.936170212766	1640.2930402930401	
1.712711789708201E12	3.0	0.0939060939060939	10648.936170212766	1895.2380952380952	
1.7127117897277021E12	3.0	0.09435009435009435	10598.823529411764	2070.32967032967	
1.7127117897472034E12	3.0	0.0939060939060939	10648.936170212766	2126.7399267399264	
1.7127117897667046E12	3.0	0.09435009435009435	10598.823529411764	2083.5164835164833	
1.712711789786206E12	3.0	0.0939060939060939	10648.936170212766	1969.230769230769	
1.7127117898057073E12	3.0	0.0939060939060939	10648.936170212766	1845.4212454212452	
1.7127117898252085E12	3.0	0.0939060939060939	10648.936170212766	1733.3333333333333	
1.7127117898447097E12	3.0	0.0939060939060939	10648.936170212766	1628.5714285714284	
1.712711789864211E12	3.0	0.0939060939060939	10648.936170212766	1537.7289377289376	
1.7127117898837122E12	3.0	0.0939060939060939	10648.936170212766	1468.8644688644688	
1.7127117899032134E12	3.0	0.0939060939060939	10648.936170212766	1408.058608058608	
1.7127117899227146E12	3.0	0.09435009435009435	10598.823529411764	1370.6959706959706	
1.7127117899422158E12	3.0	0.0939060939060939	10648.936170212766	1353.113553113553	
1.712711789961717E12	3.0	0.0939060939060939	10648.936170212766	1350.18315018315	
1.7127117899812185E12	3.0	0.0939060939060939	10648.936170212766	1369.9633699633698	
1.7127117900007197E12	3.0	0.09435009435009435	10598.823529411764	1397.069597069597	
1.712711790020221E12	3.0	0.0939060939060939	10648.936170212766	1406.5934065934066	
1.7127117900397222E12	3.0	0.0939060939060939	10648.936170212766	1405.8608058608058	
1.7127117900592234E12	3.0	0.0939060939060939	10648.936170212766	1400.7326007326005	
1.7127117900787246E12	3.0	0.0939060939060939	10648.936170212766	1383.8827838827838	
1.7127117900982258E12	3.0	0.0939060939060939	10648.936170212766	1354.5787545787546	
1.712711790117727E12	3.0	0.0939060939060939	10648.936170212766	1326.7399267399267	
1.7127117901372283E12	3.0	0.0939060939060939	10648.936170212766	1313.5531135531135	
1.7127117901567297E12	3.0	0.0939060939060939	10648.936170212766	1301.098901098901	
1.712711790176231E12	3.0	0.0939060939060939	10648.936170212766	1285.7142857142856	
1.7127117901957322E12	3.0	0.0939060939060939	10648.936170212766	1265.9340659340658	
1.7127117902152334E12	3.0	0.0939060939060939	10648.936170212766	1255.6776556776556	
1.7127117902347346E12	3.0	0.0939060939060939	10648.936170212766	1251.2820512820513	
1.7127117902542358E12	3.0	0.0939060939060939	10648.936170212766	1250.5494505494505	
1.712711790273737E12	3.0	0.0939060939060939	10648.936170212766	1232.967032967033	
1.7127117902932383E12	3.0	0.0939060939060939	10648.936170212766	1212.4542124542124	
1.7127117903127395E12	3.0	0.09435009435009435	10598.823529411764	1200.7326007326008	
1.7127117903322407E12	3.0	0.0939060939060939	10648.936170212766	1199.2673992673992	
1.7127117903517422E12	3.0	0.0939060939060939	10648.936170212766	1200.7326007326008	
1.7127117903712434E12	3.0	0.0939060939060939	10648.936170212766	1196.3369963369962	
1.7127117903907446E12	3.0	0.0939060939060939	10648.936170212766	1189.7435897435896	
1.7127117904102458E12	3.0	0.0939060939060939	10648.936170212766	1191.9413919413919	
1.712711790429747E12	3.0	0.0939060939060939	10648.936170212766	1203.6630036630036	
1.7127117904492483E12	3.0	0.0939060939060939	10648.936170212766	1207.3260073260074	
1.7127117904687495E12	3.0	0.0939060939060939	10648.936170212766	1194.8717948717947	
1.7127117904882507E12	3.0	0.0939060939060939	10648.936170212766	1172.8937728937728	
1.712711790507752E12	3.0	0.0939060939060939	10648.936170212766	1167.032967032967	
1.7127117905272534E12	3.0	0.0939060939060939	10648.936170212766	1185.3479853479853	
1.7127117905467546E12	3.0	0.0939060939060939	10648.936170212766	1202.197802197802	
1.7127117905662559E12	3.0	0.0939060939060939	10648.936170212766	1219.047619047619	
1.712711790585757E12	3.0	0.0939060939060939	10648.936170212766	1303.2967032967033	
1.7127117906052583E12	3.0	0.0939060939060939	10648.936170212766	1517.216117216117	
1.7127117906247595E12	3.0	0.0939060939060939	10648.936170212766	1809.5238095238094	
1.7127117906442607E12	3.0	0.0939060939060939	10648.936170212766	2082.0512820512818	
1.712711790663762E12	3.0	0.0939060939060939	10648.936170212766	2234.4322344322345	
1.7127117906832632E12	3.0	0.0939060939060939	10648.936170212766	2248.3516483516482	
1.7127117907027644E12	3.0	0.0939060939060939	10648.936170212766	2168.4981684981685	
1.7127117907222659E12	3.0	0.0939060939060939	10648.936170212766	2048.3516483516482	
1.712711790741767E12	3.0	0.0939060939060939	10648.936170212766	1919.4139194139193	
1.7127117907612683E12	3.0	0.0939060939060939	10648.936170212766	1808.7912087912086	
1.7127117907807695E12	3.0	0.0939060939060939	10648.936170212766	1715.7509157509157	
1.7127117908002708E12	3.0	0.0939060939060939	10648.936170212766	1628.5714285714284	
1.712711790819772E12	3.0	0.0939060939060939	10648.936170212766	1545.7875457875457	
1.7127117908392732E12	3.0	0.0939060939060939	10648.936170212766	1490.10989010989	
1.7127117908587744E12	3.0	0.0939060939060939	10648.936170212766	1462.2710622710622	
1.7127117908782756E12	3.0	0.0939060939060939	10648.936170212766	1450.5494505494505	
1.712711790897777E12	3.0	0.0939060939060939	10648.936170212766	1452.014652014652	
1.7127117909172783E12	3.0	0.0939060939060939	10648.936170212766	1463.003663003663	
1.7127117909367795E12	3.0	0.0939060939060939	10648.936170212766	1471.062271062271	
1.7127117909562808E12	3.0	0.0939060939060939	10648.936170212766	1463.7362637362637	
1.712711790975782E12	3.0	0.0939060939060939	10648.936170212766	1446.153846153846	
1.7127117909952832E12	3.0	0.0939060939060939	10648.936170212766	1425.6410256410256	
1.7127117910147844E12	3.0	0.09435009435009435	10598.823529411764	1403.6630036630036	
1.7127117910342856E12	3.0	0.0939060939060939	10648.936170212766	1385.3479853479853	
1.7127117910537869E12	3.0	0.0939060939060939	10648.936170212766	1367.7655677655678	
1.712711791073288E12	3.0	0.0939060939060939	10648.936170212766	1348.7179487179487	
1.7127117910927896E12	3.0	0.0939060939060939	10648.936170212766	1328.937728937729	
1.7127117911122908E12	3.0	0.0939060939060939	10648.936170212766	1320.14652014652	
1.712711791131792E12	3.0	0.0939060939060939	10648.936170212766	1305.4945054945053	
1.7127117911512932E12	3.0	0.0939060939060939	10648.936170212766	1286.4468864468863	
1.7127117911707944E12	3.0	0.0939060939060939	10648.936170212766	1261.5384615384614	
1.7127117911902957E12	3.0	0.0939060939060939	10648.936170212766	1240.2930402930401	
1.7127117912097969E12	3.0	0.0939060939060939	10648.936170212766	1230.03663003663	
1.712711791229298E12	3.0	0.0939060939060939	10648.936170212766	1230.03663003663	
1.7127117912487993E12	3.0	0.0939060939060939	10648.936170212766	1227.8388278388277	
1.7127117912683008E12	3.0	0.0939060939060939	10648.936170212766	1215.3846153846152	
1.712711791287802E12	3.0	0.0939060939060939	10648.936170212766	1202.9304029304028	
1.7127117913073032E12	3.0	0.0939060939060939	10648.936170212766	1202.197802197802	
1.7127117913268044E12	3.0	0.0939060939060939	10648.936170212766	1202.197802197802	
1.7127117913463057E12	3.0	0.0939060939060939	10648.936170212766	1209.5238095238094	
1.712711791365807E12	3.0	0.0939060939060939	10648.936170212766	1217.5824175824175	
1.712711791385308E12	3.0	0.0939060939060939	10648.936170212766	1206.5934065934066	
1.7127117914048093E12	3.0	0.0939060939060939	10648.936170212766	1192.6739926739926	
1.7127117914243105E12	3.0	0.0939060939060939	10648.936170212766	1179.4871794871794	
1.7127117914438118E12	3.0	0.0939060939060939	10648.936170212766	1164.8351648351647	
1.7127117914633132E12	3.0	0.0939060939060939	10648.936170212766	1158.974358974359	
1.7127117914828145E12	3.0	0.0939060939060939	10648.936170212766	1154.5787545787546	
1.7127117915023157E12	3.0	0.0939060939060939	10648.936170212766	1142.1245421245421	
1.712711791521817E12	3.0	0.0939060939060939	10648.936170212766	1149.4505494505493	
1.712711791541318E12	3.0	0.0939060939060939	10648.936170212766	1178.021978021978	
1.7127117915608193E12	3.0	0.0939060939060939	10648.936170212766	1238.8278388278388	
1.7127117915803206E12	3.0	0.0939060939060939	10648.936170212766	1387.5457875457876	
1.7127117915998218E12	3.0	0.0939060939060939	10648.936170212766	1644.6886446886447	
1.712711791619323E12	3.0	0.0939060939060939	10648.936170212766	1936.9963369963368	
1.7127117916388245E12	3.0	0.0939060939060939	10648.936170212766	2153.846153846154	
1.7127117916583257E12	3.0	0.0939060939060939	10648.936170212766	2243.223443223443	
1.712711791677827E12	3.0	0.0939060939060939	10648.936170212766	2214.6520146520147	
1.7127117916973281E12	3.0	0.0939060939060939	10648.936170212766	2115.0183150183148	
1.7127117917168293E12	3.0	0.0939060939060939	10648.936170212766	1992.6739926739926	
1.7127117917363306E12	3.0	0.0939060939060939	10648.936170212766	1871.0622710622708	
1.7127117917558318E12	3.0	0.0939060939060939	10648.936170212766	1768.4981684981683	
1.712711791775333E12	3.0	0.0939060939060939	10648.936170212766	1680.5860805860805	
1.7127117917948342E12	3.0	0.0939060939060939	10648.936170212766	1592.6739926739926	
1.7127117918143354E12	3.0	0.0939060939060939	10648.936170212766	1511.3553113553112	
1.712711791833837E12	3.0	0.0939060939060939	10648.936170212766	1468.8644688644688	
1.7127117918533381E12	3.0	0.0939060939060939	10648.936170212766	1443.956043956044	
1.7127117918728394E12	3.0	0.0939060939060939	10648.936170212766	1433.6996336996335	
1.7127117918923406E12	3.0	0.0939060939060939	10648.936170212766	1436.6300366300366	
1.7127117919118418E12	3.0	0.0939060939060939	10648.936170212766	1446.153846153846	
1.712711791931343E12	3.0	0.0939060939060939	10648.936170212766	1449.084249084249	
1.7127117919508442E12	3.0	0.0939060939060939	10648.936170212766	1432.9670329670328	
1.7127117919703455E12	3.0	0.0939060939060939	10648.936170212766	1413.9194139194137	
1.7127117919898467E12	3.0	0.0939060939060939	10648.936170212766	1393.4065934065934	
1.7127117920093481E12	3.0	0.0939060939060939	10648.936170212766	1379.4871794871794	
1.7127117920288494E12	3.0	0.0939060939060939	10648.936170212766	1378.021978021978	
1.7127117920483506E12	3.0	0.0939060939060939	10648.936170212766	1370.6959706959706	
1.7127117920678518E12	3.0	0.0939060939060939	10648.936170212766	1354.5787545787546	
1.712711792087353E12	3.0	0.0939060939060939	10648.936170212766	1331.8681318681317	
1.7127117921068542E12	3.0	0.0939060939060939	10648.936170212766	1289.3772893772893	
1.7127117921263555E12	3.0	0.0939060939060939	10648.936170212766	1252.014652014652	
1.7127117921458567E12	3.0	0.0939060939060939	10648.936170212766	1230.03663003663	
1.712711792165358E12	3.0	0.0939060939060939	10648.936170212766	1220.5128205128203	
1.7127117921848591E12	3.0	0.0939060939060939	10648.936170212766	1217.5824175824175	
1.7127117922043606E12	3.0	0.0939060939060939	10648.936170212766	1219.7802197802198	
1.7127117922238618E12	3.0	0.0939060939060939	10648.936170212766	1225.6410256410256	
1.712711792243363E12	3.0	0.0939060939060939	10648.936170212766	1214.6520146520145	
1.7127117922628643E12	3.0	0.0939060939060939	10648.936170212766	1206.5934065934066	
1.7127117922823655E12	3.0	0.0939060939060939	10648.936170212766	1190.4761904761904	
1.7127117923018667E12	3.0	0.0939060939060939	10648.936170212766	1180.952380952381	
1.712711792321368E12	3.0	0.0939060939060939	10648.936170212766	1176.5567765567764	
1.7127117923408691E12	3.0	0.09346209346209346	10699.524940617577	1172.8937728937728	
1.7127117923603704E12	3.0	0.0939060939060939	10648.936170212766	1178.7545787545787	
1.7127117923798718E12	3.0	0.0939060939060939	10648.936170212766	1186.080586080586	
1.712711792399373E12	3.0	0.0939060939060939	10648.936170212766	1185.3479853479853	
1.7127117924188743E12	3.0	0.0939060939060939	10648.936170212766	1194.8717948717947	
1.7127117924383755E12	3.0	0.0939060939060939	10648.936170212766	1202.9304029304028	
1.7127117924578767E12	3.0	0.0939060939060939	10648.936170212766	1194.8717948717947	
1.712711792477378E12	3.0	0.0939060939060939	10648.936170212766	1178.7545787545787	
1.7127117924968792E12	3.0	0.0939060939060939	10648.936170212766	1189.7435897435896	
1.7127117925163804E12	3.0	0.0939060939060939	10648.936170212766	1254.212454212454	
1.7127117925358816E12	3.0	0.0939060939060939	10648.936170212766	1408.7912087912086	
1.7127117925553828E12	3.0	0.0939060939060939	10648.936170212766	1650.5494505494505	
1.7127117925748843E12	3.0	0.0939060939060939	10648.936170212766	1909.1575091575091	
1.7127117925943855E12	3.0	0.0939060939060939	10648.936170212766	2095.238095238095	
1.7127117926138867E12	3.0	0.0939060939060939	10648.936170212766	2164.102564102564	
1.712711792633388E12	3.0	0.0939060939060939	10648.936170212766	2130.4029304029305	
1.7127117926528892E12	3.0	0.0939060939060939	10648.936170212766	2025.6410256410254	
1.7127117926723904E12	3.0	0.0939060939060939	10648.936170212766	1887.179487179487	
1.7127117926918916E12	3.0	0.0939060939060939	10648.936170212766	1761.172161172161	
1.7127117927113928E12	3.0	0.0939060939060939	10648.936170212766	1663.003663003663	
1.712711792730894E12	3.0	0.0939060939060939	10648.936170212766	1583.150183150183	
1.7127117927503955E12	3.0	0.0939060939060939	10648.936170212766	1508.4249084249084	
1.7127117927698967E12	3.0	0.0939060939060939	10648.936170212766	1449.8168498168498	
1.712711792789398E12	3.0	0.0939060939060939	10648.936170212766	1406.5934065934066	
1.7127117928088992E12	3.0	0.0939060939060939	10648.936170212766	1387.5457875457876	
1.7127117928284004E12	3.0	0.0939060939060939	10648.936170212766	1386.080586080586	
1.7127117928479016E12	3.0	0.0939060939060939	10648.936170212766	1391.9413919413919	
1.7127117928674028E12	3.0	0.0939060939060939	10648.936170212766	1409.5238095238094	
1.712711792886904E12	3.0	0.0939060939060939	10648.936170212766	1425.6410256410256	
1.7127117929064053E12	3.0	0.0939060939060939	10648.936170212766	1424.9084249084249	
1.7127117929259065E12	3.0	0.0939060939060939	10648.936170212766	1406.5934065934066	
1.712711792945408E12	3.0	0.0939060939060939	10648.936170212766	1371.4285714285713	
1.7127117929649092E12	3.0	0.0939060939060939	10648.936170212766	1331.8681318681317	
1.7127117929844104E12	3.0	0.0939060939060939	10648.936170212766	1299.6336996336995	
1.7127117930039116E12	3.0	0.0939060939060939	10648.936170212766	1282.051282051282	
1.7127117930234128E12	3.0	0.0939060939060939	10648.936170212766	1280.5860805860805	
1.712711793042914E12	3.0	0.0939060939060939	10648.936170212766	1271.7948717948716	
1.7127117930624153E12	3.0	0.0939060939060939	10648.936170212766	1260.8058608058607	
1.7127117930819165E12	3.0	0.0939060939060939	10648.936170212766	1245.4212454212454	
1.7127117931014177E12	3.0	0.0939060939060939	10648.936170212766	1228.5714285714284	
1.7127117931209192E12	3.0	0.0939060939060939	10648.936170212766	1206.5934065934066	
1.7127117931404204E12	3.0	0.0939060939060939	10648.936170212766	1207.3260073260074	
1.7127117931599216E12	3.0	0.0939060939060939	10648.936170212766	1213.1868131868132	
1.7127117931794229E12	3.0	0.0939060939060939	10648.936170212766	1215.3846153846152	
1.712711793198924E12	3.0	0.0939060939060939	10648.936170212766	1210.989010989011	
1.7127117932184253E12	3.0	0.0939060939060939	10648.936170212766	1199.2673992673992	
1.7127117932379265E12	3.0	0.0939060939060939	10648.936170212766	1185.3479853479853	
1.7127117932574277E12	3.0	0.0939060939060939	10648.936170212766	1179.4871794871794	
1.712711793276929E12	3.0	0.0939060939060939	10648.936170212766	1180.952380952381	
1.7127117932964302E12	3.0	0.0939060939060939	10648.936170212766	1183.150183150183	
1.7127117933159316E12	3.0	0.0939060939060939	10648.936170212766	1178.7545787545787	
1.7127117933354329E12	3.0	0.0939060939060939	10648.936170212766	1179.4871794871794	
1.712711793354934E12	3.0	0.0939060939060939	10648.936170212766	1169.230769230769	
1.7127117933744353E12	3.0	0.0939060939060939	10648.936170212766	1152.3809523809523	
1.7127117933939365E12	3.0	0.0939060939060939	10648.936170212766	1153.113553113553	
1.7127117934134377E12	3.0	0.0939060939060939	10648.936170212766	1175.0915750915751	
1.712711793432939E12	3.0	0.0939060939060939	10648.936170212766	1245.4212454212454	
1.7127117934524402E12	3.0	0.0939060939060939	10648.936170212766	1407.3260073260071	
1.7127117934719414E12	3.0	0.0939060939060939	10648.936170212766	1683.5164835164835	
1.7127117934914429E12	3.0	0.0939060939060939	10648.936170212766	1988.278388278388	
1.712711793510944E12	3.0	0.0939060939060939	10648.936170212766	2208.058608058608	
1.7127117935304453E12	3.0	0.0939060939060939	10648.936170212766	2292.3076923076924	
1.7127117935499465E12	3.0	0.0939060939060939	10648.936170212766	2257.142857142857	
1.7127117935694478E12	3.0	0.0939060939060939	10648.936170212766	2137.7289377289376	
1.712711793588949E12	3.0	0.0939060939060939	10648.936170212766	2004.3956043956043	
1.7127117936084502E12	3.0	0.0939060939060939	10648.936170212766	1896.7032967032965	
1.7127117936279514E12	3.0	0.0939060939060939	10648.936170212766	1814.6520146520145	
1.7127117936474526E12	3.0	0.0939060939060939	10648.936170212766	1746.5201465201465	
1.7127117936669539E12	3.0	0.09346209346209346	10699.524940617577	1669.5970695970695	
1.7127117936864553E12	3.0	0.09346209346209346	10699.524940617577	1590.4761904761904	
1.7127117937059565E12	3.0	0.09346209346209346	10699.524940617577	1517.9487179487178	
1.7127117937254578E12	3.0	0.09346209346209346	10699.524940617577	1473.260073260073	
1.712711793744959E12	3.0	0.09346209346209346	10699.524940617577	1450.5494505494505	
1.7127117937644602E12	3.0	0.09346209346209346	10699.524940617577	1445.4212454212454	
1.7127117937839614E12	3.0	0.09346209346209346	10699.524940617577	1462.2710622710622	
1.7127117938034626E12	3.0	0.09301809301809302	10750.596658711216	1471.7948717948716	
1.7127117938229639E12	3.0	0.09346209346209346	10699.524940617577	1474.7252747252746	
1.712711793842465E12	3.0	0.09301809301809302	10750.596658711216	1465.9340659340658	
1.7127117938619666E12	3.0	0.09346209346209346	10699.524940617577	1449.8168498168498	
1.7127117938814678E12	3.0	0.09346209346209346	10699.524940617577	1424.9084249084249	
1.712711793900969E12	3.0	0.09346209346209346	10699.524940617577	1397.069597069597	
1.7127117939204702E12	3.0	0.0939060939060939	10648.936170212766	1364.8351648351647	
1.7127117939399714E12	3.0	0.0939060939060939	10648.936170212766	1339.9267399267399	
1.7127117939594727E12	3.0	0.0939060939060939	10648.936170212766	1316.4835164835165	
1.7127117939789739E12	3.0	0.0939060939060939	10648.936170212766	1293.040293040293	
1.712711793998475E12	3.0	0.0939060939060939	10648.936170212766	1273.9926739926739	
1.7127117940179763E12	3.0	0.09346209346209346	10699.524940617577	1257.142857142857	
1.7127117940374775E12	3.0	0.09346209346209346	10699.524940617577	1248.3516483516482	
1.712711794056979E12	3.0	0.09346209346209346	10699.524940617577	1240.2930402930401	
1.7127117940764802E12	3.0	0.09346209346209346	10699.524940617577	1230.03663003663	
1.7127117940959814E12	3.0	0.09346209346209346	10699.524940617577	1210.989010989011	
1.7127117941154827E12	3.0	0.09346209346209346	10699.524940617577	1199.2673992673992	
1.712711794134984E12	3.0	0.09346209346209346	10699.524940617577	1200.0	
1.712711794154485E12	3.0	0.0939060939060939	10648.936170212766	1201.4652014652013	
1.7127117941739863E12	3.0	0.0939060939060939	10648.936170212766	1207.3260073260074	
1.7127117941934875E12	3.0	0.0939060939060939	10648.936170212766	1207.3260073260074	
1.7127117942129888E12	3.0	0.0939060939060939	10648.936170212766	1188.278388278388	
1.7127117942324902E12	3.0	0.0939060939060939	10648.936170212766	1177.2893772893772	
1.7127117942519915E12	3.0	0.0939060939060939	10648.936170212766	1169.9633699633698	
1.7127117942714927E12	3.0	0.0939060939060939	10648.936170212766	1168.4981684981685	
1.712711794290994E12	3.0	0.0939060939060939	10648.936170212766	1167.032967032967	
1.712711794310495E12	3.0	0.0939060939060939	10648.936170212766	1169.230769230769	
1.7127117943299963E12	3.0	0.0939060939060939	10648.936170212766	1169.9633699633698	
1.7127117943494976E12	3.0	0.0939060939060939	10648.936170212766	1172.161172161172	
1.7127117943689988E12	3.0	0.0939060939060939	10648.936170212766	1189.7435897435896	
1.7127117943885E12	3.0	0.0939060939060939	10648.936170212766	1265.9340659340658	
1.7127117944080015E12	3.0	0.0939060939060939	10648.936170212766	1457.8754578754579	
1.7127117944275027E12	3.0	0.0939060939060939	10648.936170212766	1746.5201465201465	
1.712711794447004E12	3.0	0.0939060939060939	10648.936170212766	2027.8388278388277	
1.7127117944665051E12	3.0	0.0939060939060939	10648.936170212766	2207.326007326007	
1.7127117944860063E12	3.0	0.09346209346209346	10699.524940617577	2256.4102564102564	
1.7127117945055076E12	3.0	0.0939060939060939	10648.936170212766	2197.069597069597	
1.7127117945250088E12	3.0	0.0939060939060939	10648.936170212766	2087.179487179487	
1.71271179454451E12	3.0	0.0939060939060939	10648.936170212766	1970.6959706959706	
1.7127117945640112E12	3.0	0.09435009435009435	10598.823529411764	1868.131868131868	
1.7127117945835125E12	3.0	0.09435009435009435	10598.823529411764	1790.4761904761904	
1.712711794603014E12	3.0	0.0939060939060939	10648.936170212766	1724.5421245421244	
1.7127117946225151E12	3.0	0.0939060939060939	10648.936170212766	1651.2820512820513	
1.7127117946420164E12	3.0	0.0939060939060939	10648.936170212766	1575.8241758241757	
1.7127117946615176E12	3.0	0.0939060939060939	10648.936170212766	1512.8205128205127	
1.7127117946810188E12	3.0	0.0939060939060939	10648.936170212766	1481.3186813186812	
1.71271179470052E12	3.0	0.0939060939060939	10648.936170212766	1473.260073260073	
1.7127117947200212E12	3.0	0.0939060939060939	10648.936170212766	1479.120879120879	
1.7127117947395225E12	3.0	0.0939060939060939	10648.936170212766	1489.3772893772893	
1.7127117947590237E12	3.0	0.09435009435009435	10598.823529411764	1489.3772893772893	
1.7127117947785251E12	3.0	0.0939060939060939	10648.936170212766	1483.5164835164835	
1.7127117947980264E12	3.0	0.09435009435009435	10598.823529411764	1478.3882783882782	
1.7127117948175276E12	3.0	0.0939060939060939	10648.936170212766	1468.131868131868	
1.7127117948370288E12	3.0	0.0939060939060939	10648.936170212766	1445.4212454212454	
1.71271179485653E12	3.0	0.0939060939060939	10648.936170212766	1415.3846153846152	
1.7127117948760312E12	3.0	0.0939060939060939	10648.936170212766	1376.5567765567764	
1.7127117948955325E12	3.0	0.0939060939060939	10648.936170212766	1345.054945054945	
1.7127117949150337E12	3.0	0.0939060939060939	10648.936170212766	1324.5421245421244	
1.712711794934535E12	3.0	0.0939060939060939	10648.936170212766	1313.5531135531135	
1.7127117949540361E12	3.0	0.09435009435009435	10598.823529411764	1304.0293040293038	
1.7127117949735376E12	3.0	0.09435009435009435	10598.823529411764	1290.10989010989	
1.7127117949930388E12	3.0	0.0939060939060939	10648.936170212766	1276.923076923077	
1.71271179501254E12	3.0	0.0939060939060939	10648.936170212766	1263.7362637362637	
1.7127117950320413E12	3.0	0.0939060939060939	10648.936170212766	1246.8864468864467	
1.7127117950515425E12	3.0	0.0939060939060939	10648.936170212766	1232.2344322344322	
1.7127117950710437E12	3.0	0.0939060939060939	10648.936170212766	1221.9780219780218	
1.712711795090545E12	3.0	0.0939060939060939	10648.936170212766	1219.047619047619	
1.7127117951100461E12	3.0	0.0939060939060939	10648.936170212766	1219.047619047619	
1.7127117951295474E12	3.0	0.0939060939060939	10648.936170212766	1217.5824175824175	
1.7127117951490488E12	3.0	0.0939060939060939	10648.936170212766	1216.8498168498168	
1.71271179516855E12	3.0	0.0939060939060939	10648.936170212766	1208.7912087912086	
1.7127117951880513E12	3.0	0.0939060939060939	10648.936170212766	1196.3369963369962	
1.7127117952075525E12	3.0	0.0939060939060939	10648.936170212766	1180.952380952381	
1.7127117952270537E12	3.0	0.0939060939060939	10648.936170212766	1170.6959706959706	
1.712711795246555E12	3.0	0.0939060939060939	10648.936170212766	1172.161172161172	
1.7127117952660562E12	3.0	0.0939060939060939	10648.936170212766	1203.6630036630036	
1.7127117952855574E12	3.0	0.0939060939060939	10648.936170212766	1305.4945054945053	
1.7127117953050586E12	3.0	0.0939060939060939	10648.936170212766	1520.14652014652	
1.7127117953245598E12	3.0	0.0939060939060939	10648.936170212766	1812.4542124542124	
1.7127117953440613E12	3.0	0.0939060939060939	10648.936170212766	2076.9230769230767	
1.7127117953635625E12	3.0	0.0939060939060939	10648.936170212766	2218.3150183150183	
1.7127117953830637E12	3.0	0.0939060939060939	10648.936170212766	2221.978021978022	
1.712711795402565E12	3.0	0.0939060939060939	10648.936170212766	2142.124542124542	
1.7127117954220662E12	3.0	0.0939060939060939	10648.936170212766	2030.7692307692307	
1.7127117954415674E12	3.0	0.0939060939060939	10648.936170212766	1924.5421245421244	
1.7127117954610686E12	3.0	0.0939060939060939	10648.936170212766	1828.5714285714284	
1.7127117954805698E12	3.0	0.09346209346209346	10699.524940617577	1737.7289377289376	
1.712711795500071E12	3.0	0.0939060939060939	10648.936170212766	1644.6886446886447	
1.7127117955195725E12	3.0	0.0939060939060939	10648.936170212766	1576.5567765567764	
1.7127117955390737E12	3.0	0.0939060939060939	10648.936170212766	1515.7509157509157	
1.712711795558575E12	3.0	0.0939060939060939	10648.936170212766	1463.003663003663	
1.7127117955780762E12	3.0	0.09346209346209346	10699.524940617577	1427.106227106227	
1.7127117955975774E12	3.0	0.09301809301809302	10750.596658711216	1418.3150183150183	
1.7127117956170786E12	3.0	0.09346209346209346	10699.524940617577	1441.0256410256409	
1.7127117956365798E12	3.0	0.09346209346209346	10699.524940617577	1468.131868131868	
1.712711795656081E12	3.0	0.09301809301809302	10750.596658711216	1479.120879120879	
1.7127117956755823E12	3.0	0.09346209346209346	10699.524940617577	1471.062271062271	
1.7127117956950835E12	3.0	0.09301809301809302	10750.596658711216	1441.7582417582416	
1.712711795714585E12	3.0	0.09301809301809302	10750.596658711216	1411.7216117216117	
1.7127117957340862E12	3.0	0.09346209346209346	10699.524940617577	1394.139194139194	
1.7127117957535874E12	3.0	0.09346209346209346	10699.524940617577	1376.5567765567764	
1.7127117957730886E12	3.0	0.09346209346209346	10699.524940617577	1354.5787545787546	
1.7127117957925898E12	3.0	0.09346209346209346	10699.524940617577	1332.6007326007325	
1.712711795812091E12	3.0	0.0939060939060939	10648.936170212766	1305.4945054945053	
1.7127117958315923E12	3.0	0.0939060939060939	10648.936170212766	1286.4468864468863	
1.7127117958510935E12	3.0	0.0939060939060939	10648.936170212766	1282.051282051282	
1.7127117958705947E12	3.0	0.0939060939060939	10648.936170212766	1287.179487179487	
1.7127117958900962E12	3.0	0.0939060939060939	10648.936170212766	1270.3296703296703	
1.7127117959095974E12	3.0	0.09435009435009435	10598.823529411764	1243.2234432234432	
1.7127117959290986E12	3.0	0.09435009435009435	10598.823529411764	1224.9084249084249	
1.7127117959485999E12	3.0	0.09435009435009435	10598.823529411764	1211.7216117216117	
1.712711795968101E12	3.0	0.09435009435009435	10598.823529411764	1208.7912087912086	
1.7127117959876023E12	3.0	0.09435009435009435	10598.823529411764	1203.6630036630036	
1.7127117960071035E12	3.0	0.09435009435009435	10598.823529411764	1202.197802197802	
1.7127117960266047E12	3.0	0.09435009435009435	10598.823529411764	1202.197802197802	
1.712711796046106E12	3.0	0.09435009435009435	10598.823529411764	1191.2087912087911	
1.7127117960656072E12	3.0	0.09435009435009435	10598.823529411764	1170.6959706959706	
1.7127117960851086E12	3.0	0.09435009435009435	10598.823529411764	1152.3809523809523	
1.7127117961046099E12	3.0	0.09435009435009435	10598.823529411764	1143.5897435897434	
1.712711796124111E12	3.0	0.0939060939060939	10648.936170212766	1143.5897435897434	
1.7127117961436123E12	3.0	0.0939060939060939	10648.936170212766	1158.2417582417581	
1.7127117961631135E12	3.0	0.09346209346209346	10699.524940617577	1198.5347985347985	
1.7127117961826147E12	3.0	0.0939060939060939	10648.936170212766	1333.3333333333333	
1.712711796202116E12	3.0	0.09346209346209346	10699.524940617577	1610.989010989011	
1.7127117962216172E12	3.0	0.09346209346209346	10699.524940617577	1958.2417582417581	
1.7127117962411184E12	3.0	0.09346209346209346	10699.524940617577	2232.234432234432	
1.7127117962606199E12	3.0	0.0939060939060939	10648.936170212766	2372.161172161172	
1.712711796280121E12	3.0	0.0939060939060939	10648.936170212766	2380.21978021978	
1.7127117962996223E12	3.0	0.09435009435009435	10598.823529411764	2307.6923076923076	
1.7127117963191235E12	3.0	0.09479409479409479	10549.180327868853	2202.9304029304026	
1.7127117963386248E12	3.0	0.09435009435009435	10598.823529411764	2090.842490842491	
1.712711796358126E12	3.0	0.09346209346209346	10699.524940617577	1993.4065934065932	
1.7127117963776272E12	3.0	0.09257409257409258	10802.158273381294	1906.227106227106	
1.7127117963971284E12	3.0	0.09257409257409258	10802.158273381294	1838.095238095238	
1.7127117964166296E12	3.0	0.09257409257409258	10802.158273381294	1752.3809523809523	
1.7127117964361309E12	3.0	0.09301809301809302	10750.596658711216	1659.3406593406592	
1.7127117964556323E12	3.0	0.09301809301809302	10750.596658711216	1581.6849816849815	
1.7127117964751335E12	3.0	0.09301809301809302	10750.596658711216	1525.2747252747251	
1.7127117964946348E12	3.0	0.09301809301809302	10750.596658711216	1497.4358974358972	
1.712711796514136E12	3.0	0.09301809301809302	10750.596658711216	1498.168498168498	
1.7127117965336372E12	3.0	0.09346209346209346	10699.524940617577	1514.2857142857142	
1.7127117965531384E12	3.0	0.09346209346209346	10699.524940617577	1522.3443223443223	
1.7127117965726396E12	3.0	0.0939060939060939	10648.936170212766	1512.8205128205127	
1.7127117965921409E12	3.0	0.09435009435009435	10598.823529411764	1496.7032967032967	
1.712711796611642E12	3.0	0.09479409479409479	10549.180327868853	1461.5384615384614	
1.7127117966311436E12	3.0	0.09479409479409479	10549.180327868853	1416.117216117216	
1.7127117966506448E12	3.0	0.09479409479409479	10549.180327868853	1374.3589743589744	
1.712711796670146E12	3.0	0.09479409479409479	10549.180327868853	1352.3809523809523	
1.7127117966896472E12	3.0	0.09479409479409479	10549.180327868853	1336.263736263736	
1.7127117967091484E12	3.0	0.09435009435009435	10598.823529411764	1327.4725274725274	
1.7127117967286497E12	3.0	0.0939060939060939	10648.936170212766	1321.6117216117216	
1.712711796748151E12	3.0	0.09257409257409258	10802.158273381294	1304.7619047619046	
1.712711796767652E12	3.0	0.09346209346209346	10699.524940617577	1285.7142857142856	
1.7127117967871533E12	3.0	0.09479409479409479	10549.180327868853	1262.2710622710622	
1.7127117968066545E12	3.0	0.09568209568209568	10451.276102088168	1238.8278388278388	
1.712711796826156E12	3.0	0.09568209568209568	10451.276102088168	1232.967032967033	
1.7127117968456572E12	3.0	0.09523809523809525	10500.0	1227.106227106227	
1.7127117968651584E12	3.0	0.09479409479409479	10549.180327868853	1202.9304029304028	
1.7127117968846597E12	3.0	0.09523809523809525	10500.0	1186.8131868131868	
1.712711796904161E12	3.0	0.09523809523809525	10500.0	1179.4871794871794	
1.712711796923662E12	3.0	0.09523809523809525	10500.0	1175.0915750915751	
1.7127117969431633E12	3.0	0.09479409479409479	10549.180327868853	1170.6959706959706	
1.7127117969626646E12	3.0	0.09435009435009435	10598.823529411764	1166.3003663003662	
1.7127117969821658E12	3.0	0.0939060939060939	10648.936170212766	1168.4981684981685	
1.7127117970016672E12	3.0	0.0939060939060939	10648.936170212766	1171.4285714285713	
1.7127117970211685E12	3.0	0.09435009435009435	10598.823529411764	1159.7069597069597	
1.7127117970406697E12	3.0	0.09435009435009435	10598.823529411764	1158.2417582417581	
1.712711797060171E12	3.0	0.0939060939060939	10648.936170212766	1209.5238095238094	
1.712711797079672E12	3.0	0.0939060939060939	10648.936170212766	1377.2893772893772	
1.7127117970991733E12	3.0	0.0939060939060939	10648.936170212766	1662.2710622710622	
1.7127117971186746E12	3.0	0.09346209346209346	10699.524940617577	1974.3589743589741	
1.7127117971381758E12	3.0	0.09301809301809302	10750.596658711216	2200.7326007326005	
1.712711797157677E12	3.0	0.0939060939060939	10648.936170212766	2284.2490842490843	
1.7127117971771782E12	3.0	0.09435009435009435	10598.823529411764	2243.223443223443	
1.7127117971966797E12	3.0	0.09435009435009435	10598.823529411764	2129.6703296703295	
1.712711797216181E12	3.0	0.09435009435009435	10598.823529411764	2004.3956043956043	
1.7127117972356821E12	3.0	0.09435009435009435	10598.823529411764	1908.4249084249084	
1.7127117972551833E12	3.0	0.0939060939060939	10648.936170212766	1839.5604395604394	
1.7127117972746846E12	3.0	0.0939060939060939	10648.936170212766	1775.091575091575	
1.7127117972941858E12	3.0	0.09435009435009435	10598.823529411764	1698.9010989010987	
1.712711797313687E12	3.0	0.0939060939060939	10648.936170212766	1613.186813186813	
1.7127117973331882E12	3.0	0.0939060939060939	10648.936170212766	1536.9963369963368	
1.7127117973526895E12	3.0	0.0939060939060939	10648.936170212766	1477.6556776556777	
1.712711797372191E12	3.0	0.09435009435009435	10598.823529411764	1443.956043956044	
1.7127117973916921E12	3.0	0.09435009435009435	10598.823529411764	1430.7692307692307	
1.7127117974111934E12	3.0	0.0939060939060939	10648.936170212766	1439.5604395604394	
1.7127117974306946E12	3.0	0.09435009435009435	10598.823529411764	1452.7472527472526	
1.7127117974501958E12	3.0	0.0939060939060939	10648.936170212766	1454.9450549450548	
1.712711797469697E12	3.0	0.0939060939060939	10648.936170212766	1438.8278388278388	
1.7127117974891982E12	3.0	0.09435009435009435	10598.823529411764	1415.3846153846152	
1.7127117975086995E12	3.0	0.09523809523809525	10500.0	1391.9413919413919	
1.7127117975282007E12	3.0	0.09479409479409479	10549.180327868853	1363.3699633699632	
1.712711797547702E12	3.0	0.09435009435009435	10598.823529411764	1335.5311355311355	
1.7127117975672034E12	3.0	0.09346209346209346	10699.524940617577	1311.3553113553112	
1.7127117975867046E12	3.0	0.09346209346209346	10699.524940617577	1285.7142857142856	
1.7127117976062058E12	3.0	0.0939060939060939	10648.936170212766	1259.3406593406592	
1.712711797625707E12	3.0	0.0939060939060939	10648.936170212766	1239.5604395604396	
1.7127117976452083E12	3.0	0.0939060939060939	10648.936170212766	1214.6520146520145	
1.7127117976647095E12	3.0	0.09435009435009435	10598.823529411764	1190.4761904761904	
1.7127117976842107E12	3.0	0.09435009435009435	10598.823529411764	1186.080586080586	
1.712711797703712E12	3.0	0.09435009435009435	10598.823529411764	1164.8351648351647	
1.7127117977232131E12	3.0	0.09435009435009435	10598.823529411764	1133.3333333333333	
1.7127117977427146E12	3.0	0.0939060939060939	10648.936170212766	1125.2747252747251	
1.7127117977622158E12	3.0	0.0939060939060939	10648.936170212766	1129.6703296703297	
1.712711797781717E12	3.0	0.0939060939060939	10648.936170212766	1133.3333333333333	
1.7127117978012183E12	3.0	0.0939060939060939	10648.936170212766	1134.7985347985348	
1.7127117978207195E12	3.0	0.0939060939060939	10648.936170212766	1126.007326007326	
1.7127117978402207E12	3.0	0.0939060939060939	10648.936170212766	1110.6227106227107	
1.712711797859722E12	3.0	0.0939060939060939	10648.936170212766	1106.9597069597069	
1.7127117978792231E12	3.0	0.0939060939060939	10648.936170212766	1103.2967032967033	
1.7127117978987244E12	3.0	0.0939060939060939	10648.936170212766	1123.076923076923	
1.7127117979182256E12	3.0	0.0939060939060939	10648.936170212766	1232.2344322344322	
1.712711797937727E12	3.0	0.09346209346209346	10699.524940617577	1476.923076923077	
1.7127117979572283E12	3.0	0.0939060939060939	10648.936170212766	1778.021978021978	
1.7127117979767295E12	3.0	0.09346209346209346	10699.524940617577	2023.4432234432234	
1.7127117979962307E12	3.0	0.0939060939060939	10648.936170212766	2148.7179487179487	
1.712711798015732E12	3.0	0.0939060939060939	10648.936170212766	2143.5897435897436	
1.7127117980352332E12	3.0	0.0939060939060939	10648.936170212766	2060.07326007326	
1.7127117980547344E12	3.0	0.0939060939060939	10648.936170212766	1942.8571428571427	
1.7127117980742356E12	3.0	0.0939060939060939	10648.936170212766	1837.3626373626373	
1.7127117980937368E12	3.0	0.0939060939060939	10648.936170212766	1747.985347985348	
1.7127117981132383E12	3.0	0.0939060939060939	10648.936170212766	1678.3882783882782	
1.7127117981327395E12	3.0	0.0939060939060939	10648.936170212766	1610.2564102564102	
1.7127117981522407E12	3.0	0.0939060939060939	10648.936170212766	1530.4029304029302	
1.712711798171742E12	3.0	0.0939060939060939	10648.936170212766	1452.014652014652	
1.7127117981912432E12	3.0	0.0939060939060939	10648.936170212766	1385.3479853479853	
1.7127117982107444E12	3.0	0.0939060939060939	10648.936170212766	1339.194139194139	
1.7127117982302456E12	3.0	0.0939060939060939	10648.936170212766	1326.7399267399267	
1.7127117982497468E12	3.0	0.0939060939060939	10648.936170212766	1341.3919413919414	
1.712711798269248E12	3.0	0.0939060939060939	10648.936170212766	1358.2417582417581	
1.7127117982887493E12	3.0	0.0939060939060939	10648.936170212766	1367.7655677655678	
1.7127117983082507E12	3.0	0.0939060939060939	10648.936170212766	1358.2417582417581	
1.712711798327752E12	3.0	0.0939060939060939	10648.936170212766	1341.3919413919414	
1.7127117983472532E12	3.0	0.0939060939060939	10648.936170212766	1326.7399267399267	
1.7127117983667544E12	3.0	0.0939060939060939	10648.936170212766	1300.3663003663003	
1.7127117983862556E12	3.0	0.09346209346209346	10699.524940617577	1259.3406593406592	
1.7127117984057568E12	3.0	0.09346209346209346	10699.524940617577	1223.4432234432234	
1.712711798425258E12	3.0	0.09346209346209346	10699.524940617577	1205.128205128205	
1.7127117984447593E12	3.0	0.0939060939060939	10648.936170212766	1190.4761904761904	
1.7127117984642605E12	3.0	0.0939060939060939	10648.936170212766	1178.021978021978	
1.712711798483762E12	3.0	0.09346209346209346	10699.524940617577	1164.8351648351647	
1.7127117985032632E12	3.0	0.0939060939060939	10648.936170212766	1148.7179487179487	
1.7127117985227644E12	3.0	0.0939060939060939	10648.936170212766	1129.6703296703297	
1.7127117985422656E12	3.0	0.0939060939060939	10648.936170212766	1109.1575091575091	
1.7127117985617668E12	3.0	0.0939060939060939	10648.936170212766	1096.7032967032967	
1.712711798581268E12	3.0	0.0939060939060939	10648.936170212766	1084.2490842490843	
1.7127117986007693E12	3.0	0.0939060939060939	10648.936170212766	1072.5274725274724	
1.7127117986202705E12	3.0	0.0939060939060939	10648.936170212766	1061.5384615384614	
1.7127117986397717E12	3.0	0.09346209346209346	10699.524940617577	1047.6190476190475	
1.712711798659273E12	3.0	0.0939060939060939	10648.936170212766	1038.8278388278388	
1.7127117986787744E12	3.0	0.0939060939060939	10648.936170212766	1032.967032967033	
1.7127117986982756E12	3.0	0.0939060939060939	10648.936170212766	1044.6886446886447	
1.7127117987177769E12	3.0	0.0939060939060939	10648.936170212766	1055.6776556776556	
1.712711798737278E12	3.0	0.0939060939060939	10648.936170212766	1053.4798534798533	
1.7127117987567793E12	3.0	0.0939060939060939	10648.936170212766	1049.8168498168498	
1.7127117987762805E12	3.0	0.0939060939060939	10648.936170212766	1079.120879120879	
1.7127117987957817E12	3.0	0.0939060939060939	10648.936170212766	1183.150183150183	
1.712711798815283E12	3.0	0.0939060939060939	10648.936170212766	1422.7106227106226	
1.7127117988347842E12	3.0	0.0939060939060939	10648.936170212766	1727.4725274725274	
1.7127117988542856E12	3.0	0.0939060939060939	10648.936170212766	1983.150183150183	
1.7127117988737869E12	3.0	0.0939060939060939	10648.936170212766	2125.274725274725	
1.712711798893288E12	3.0	0.0939060939060939	10648.936170212766	2134.7985347985345	
1.7127117989127893E12	3.0	0.0939060939060939	10648.936170212766	2046.8864468864467	
1.7127117989322905E12	3.0	0.0939060939060939	10648.936170212766	1935.5311355311353	
1.7127117989517917E12	3.0	0.0939060939060939	10648.936170212766	1833.6996336996335	
1.712711798971293E12	3.0	0.0939060939060939	10648.936170212766	1754.5787545787546	
1.7127117989907942E12	3.0	0.0939060939060939	10648.936170212766	1698.9010989010987	
1.7127117990102954E12	3.0	0.0939060939060939	10648.936170212766	1658.6080586080584	
1.7127117990297966E12	3.0	0.0939060939060939	10648.936170212766	1610.2564102564102	
1.712711799049298E12	3.0	0.0939060939060939	10648.936170212766	1539.9267399267399	
1.7127117990687993E12	3.0	0.0939060939060939	10648.936170212766	1463.003663003663	
1.7127117990883005E12	3.0	0.0939060939060939	10648.936170212766	1390.4761904761904	
1.7127117991078018E12	3.0	0.0939060939060939	10648.936170212766	1341.3919413919414	
1.712711799127303E12	3.0	0.09346209346209346	10699.524940617577	1323.076923076923	
1.7127117991468042E12	3.0	0.0939060939060939	10648.936170212766	1333.3333333333333	
1.7127117991663054E12	3.0	0.09346209346209346	10699.524940617577	1336.263736263736	
1.7127117991858066E12	3.0	0.0939060939060939	10648.936170212766	1325.2747252747251	
1.7127117992053079E12	3.0	0.0939060939060939	10648.936170212766	1307.6923076923076	
1.7127117992248093E12	3.0	0.0939060939060939	10648.936170212766	1295.2380952380952	
1.7127117992443105E12	3.0	0.09346209346209346	10699.524940617577	1293.040293040293	
1.7127117992638118E12	3.0	0.09346209346209346	10699.524940617577	1285.7142857142856	
1.712711799283313E12	3.0	0.0939060939060939	10648.936170212766	1262.2710622710622	
1.7127117993028142E12	3.0	0.09346209346209346	10699.524940617577	1234.4322344322343	
1.7127117993223154E12	3.0	0.0939060939060939	10648.936170212766	1210.2564102564102	
1.7127117993418167E12	3.0	0.0939060939060939	10648.936170212766	1187.5457875457876	
1.7127117993613179E12	3.0	0.0939060939060939	10648.936170212766	1165.5677655677655	
1.712711799380819E12	3.0	0.09346209346209346	10699.524940617577	1142.857142857143	
1.7127117994003203E12	3.0	0.0939060939060939	10648.936170212766	1129.6703296703297	
1.7127117994198218E12	3.0	0.0939060939060939	10648.936170212766	1109.89010989011	
1.712711799439323E12	3.0	0.0939060939060939	10648.936170212766	1099.6336996336995	
1.7127117994588242E12	3.0	0.0939060939060939	10648.936170212766	1100.3663003663003	
1.7127117994783254E12	3.0	0.0939060939060939	10648.936170212766	1093.7728937728937	
1.7127117994978267E12	3.0	0.0939060939060939	10648.936170212766	1084.981684981685	
1.712711799517328E12	3.0	0.0939060939060939	10648.936170212766	1066.6666666666665	
1.712711799536829E12	3.0	0.0939060939060939	10648.936170212766	1042.4908424908424	
1.7127117995563303E12	3.0	0.09435009435009435	10598.823529411764	1015.3846153846154	
1.7127117995758315E12	3.0	0.09435009435009435	10598.823529411764	989.010989010989	
1.712711799595333E12	3.0	0.09435009435009435	10598.823529411764	976.5567765567765	
1.7127117996148342E12	3.0	0.09479409479409479	10549.180327868853	980.9523809523808	
1.7127117996343354E12	3.0	0.09479409479409479	10549.180327868853	995.6043956043956	
1.7127117996538367E12	3.0	0.09523809523809525	10500.0	1022.7106227106226	
1.712711799673338E12	3.0	0.09523809523809525	10500.0	1085.7142857142856	
1.712711799692839E12	3.0	0.09479409479409479	10549.180327868853	1231.5018315018315	
1.7127117997123403E12	3.0	0.09479409479409479	10549.180327868853	1476.923076923077	
1.7127117997318416E12	3.0	0.09479409479409479	10549.180327868853	1721.6117216117216	
1.7127117997513428E12	3.0	0.09479409479409479	10549.180327868853	1882.7838827838827	
1.712711799770844E12	3.0	0.09435009435009435	10598.823529411764	1930.4029304029302	
1.7127117997903455E12	3.0	0.0939060939060939	10648.936170212766	1885.7142857142856	
1.7127117998098467E12	3.0	0.09346209346209346	10699.524940617577	1797.069597069597	
1.712711799829348E12	3.0	0.09346209346209346	10699.524940617577	1704.0293040293038	
1.712711799848849E12	3.0	0.09346209346209346	10699.524940617577	1635.164835164835	
1.7127117998683503E12	3.0	0.09346209346209346	10699.524940617577	1577.2893772893772	
1.7127117998878516E12	3.0	0.09346209346209346	10699.524940617577	1516.4835164835163	
1.7127117999073528E12	3.0	0.0939060939060939	10648.936170212766	1450.5494505494505	
1.712711799926854E12	3.0	0.0939060939060939	10648.936170212766	1389.0109890109889	
1.7127117999463552E12	3.0	0.0939060939060939	10648.936170212766	1323.8095238095236	
1.7127117999658567E12	3.0	0.09435009435009435	10598.823529411764	1272.5274725274724	
1.712711799985358E12	3.0	0.09435009435009435	10598.823529411764	1245.4212454212454	
1.7127118000048591E12	3.0	0.09435009435009435	10598.823529411764	1243.2234432234432	
1.7127118000243604E12	3.0	0.09435009435009435	10598.823529411764	1254.212454212454	
1.7127118000438616E12	3.0	0.09435009435009435	10598.823529411764	1266.6666666666665	
1.7127118000633628E12	3.0	0.09479409479409479	10549.180327868853	1265.2014652014652	
1.712711800082864E12	3.0	0.09479409479409479	10549.180327868853	1252.014652014652	
1.7127118001023652E12	3.0	0.09479409479409479	10549.180327868853	1241.7582417582416	
1.7127118001218665E12	3.0	0.09479409479409479	10549.180327868853	1227.8388278388277	
1.7127118001413677E12	3.0	0.09479409479409479	10549.180327868853	1202.9304029304028	
1.7127118001608691E12	3.0	0.09479409479409479	10549.180327868853	1184.6153846153845	
1.7127118001803704E12	3.0	0.09479409479409479	10549.180327868853	1170.6959706959706	
1.7127118001998716E12	3.0	0.09479409479409479	10549.180327868853	1159.7069597069597	
1.7127118002193728E12	3.0	0.09435009435009435	10598.823529411764	1152.3809523809523	
1.712711800238874E12	3.0	0.0939060939060939	10648.936170212766	1139.194139194139	
1.7127118002583752E12	3.0	0.0939060939060939	10648.936170212766	1126.007326007326	
1.7127118002778765E12	3.0	0.0939060939060939	10648.936170212766	1115.018315018315	
1.7127118002973777E12	3.0	0.0939060939060939	10648.936170212766	1110.6227106227107	
1.712711800316879E12	3.0	0.0939060939060939	10648.936170212766	1100.3663003663003	
1.7127118003363804E12	3.0	0.0939060939060939	10648.936170212766	1089.3772893772893	
1.7127118003558816E12	3.0	0.0939060939060939	10648.936170212766	1092.3076923076922	
1.7127118003753828E12	3.0	0.0939060939060939	10648.936170212766	1101.8315018315018	
1.712711800394884E12	3.0	0.09479409479409479	10549.180327868853	1101.8315018315018	
1.7127118004143853E12	3.0	0.09479409479409479	10549.180327868853	1092.3076923076922	
1.7127118004338865E12	3.0	0.09435009435009435	10598.823529411764	1078.3882783882784	
1.7127118004533877E12	3.0	0.09435009435009435	10598.823529411764	1075.4578754578754	
1.712711800472889E12	3.0	0.09346209346209346	10699.524940617577	1082.7838827838827	
1.7127118004923901E12	3.0	0.09346209346209346	10699.524940617577	1082.051282051282	
1.7127118005118914E12	3.0	0.09301809301809302	10750.596658711216	1075.4578754578754	
1.7127118005313928E12	3.0	0.09346209346209346	10699.524940617577	1075.4578754578754	
1.712711800550894E12	3.0	0.09346209346209346	10699.524940617577	1098.168498168498	
1.7127118005703953E12	3.0	0.0939060939060939	10648.936170212766	1169.230769230769	
1.7127118005898965E12	3.0	0.09435009435009435	10598.823529411764	1320.8791208791208	
1.7127118006093977E12	3.0	0.09479409479409479	10549.180327868853	1517.9487179487178	
1.712711800628899E12	3.0	0.09479409479409479	10549.180327868853	1704.7619047619046	
1.7127118006484001E12	3.0	0.09346209346209346	10699.524940617577	1816.117216117216	
1.7127118006679014E12	3.0	0.09301809301809302	10750.596658711216	1829.3040293040292	
1.7127118006874026E12	3.0	0.09301809301809302	10750.596658711216	1769.230769230769	
1.712711800706904E12	3.0	0.09301809301809302	10750.596658711216	1673.260073260073	
1.7127118007264053E12	3.0	0.09257409257409258	10802.158273381294	1567.7655677655678	
1.7127118007459065E12	3.0	0.0939060939060939	10648.936170212766	1482.051282051282	
1.7127118007654077E12	3.0	0.0939060939060939	10648.936170212766	1421.245421245421	
1.712711800784909E12	3.0	0.0939060939060939	10648.936170212766	1372.8937728937728	
1.7127118008044102E12	3.0	0.0939060939060939	10648.936170212766	1317.216117216117	
1.7127118008239114E12	3.0	0.09435009435009435	10598.823529411764	1268.8644688644688	
1.7127118008434126E12	3.0	0.09435009435009435	10598.823529411764	1235.8974358974358	
1.7127118008629138E12	3.0	0.09435009435009435	10598.823529411764	1211.7216117216117	
1.712711800882415E12	3.0	0.0939060939060939	10648.936170212766	1199.2673992673992	
1.7127118009019165E12	3.0	0.0939060939060939	10648.936170212766	1200.0	
1.7127118009214177E12	3.0	0.0939060939060939	10648.936170212766	1208.058608058608	
1.712711800940919E12	3.0	0.09346209346209346	10699.524940617577	1216.117216117216	
1.7127118009604202E12	3.0	0.09301809301809302	10750.596658711216	1224.9084249084249	
1.7127118009799214E12	3.0	0.09257409257409258	10802.158273381294	1230.03663003663	
1.7127118009994226E12	3.0	0.09257409257409258	10802.158273381294	1218.3150183150183	
1.7127118010189238E12	3.0	0.09257409257409258	10802.158273381294	1192.6739926739926	
1.712711801038425E12	3.0	0.09257409257409258	10802.158273381294	1164.8351648351647	
1.7127118010579263E12	3.0	0.09301809301809302	10750.596658711216	1142.857142857143	
1.7127118010774277E12	3.0	0.09301809301809302	10750.596658711216	1134.065934065934	
1.712711801096929E12	3.0	0.09257409257409258	10802.158273381294	1126.007326007326	
1.7127118011164302E12	3.0	0.09257409257409258	10802.158273381294	1132.6007326007325	
1.7127118011359314E12	3.0	0.09257409257409258	10802.158273381294	1151.6483516483515	
1.7127118011554326E12	3.0	0.09257409257409258	10802.158273381294	1155.3113553113553	
1.7127118011749338E12	3.0	0.09301809301809302	10750.596658711216	1139.9267399267399	
1.712711801194435E12	3.0	0.09301809301809302	10750.596658711216	1115.018315018315	
1.7127118012139363E12	3.0	0.09301809301809302	10750.596658711216	1097.4358974358975	
1.7127118012334375E12	3.0	0.09257409257409258	10802.158273381294	1091.5750915750914	
1.7127118012529387E12	3.0	0.09257409257409258	10802.158273381294	1090.10989010989	
1.7127118012724402E12	3.0	0.09257409257409258	10802.158273381294	1076.923076923077	
1.7127118012919414E12	3.0	0.09301809301809302	10750.596658711216	1068.8644688644688	
1.7127118013114426E12	3.0	0.09301809301809302	10750.596658711216	1070.3296703296703	
1.7127118013309438E12	3.0	0.09346209346209346	10699.524940617577	1078.3882783882784	
1.712711801350445E12	3.0	0.09346209346209346	10699.524940617577	1087.179487179487	
1.7127118013699463E12	3.0	0.09346209346209346	10699.524940617577	1095.2380952380952	
1.7127118013894475E12	3.0	0.09346209346209346	10699.524940617577	1095.970695970696	
1.7127118014089487E12	3.0	0.09346209346209346	10699.524940617577	1093.040293040293	
1.71271180142845E12	3.0	0.09346209346209346	10699.524940617577	1089.3772893772893	
1.7127118014479514E12	3.0	0.0939060939060939	10648.936170212766	1083.5164835164835	
1.7127118014674526E12	3.0	0.0939060939060939	10648.936170212766	1081.3186813186812	
1.7127118014869539E12	3.0	0.0939060939060939	10648.936170212766	1103.2967032967033	
1.712711801506455E12	3.0	0.0939060939060939	10648.936170212766	1155.3113553113553	
1.7127118015259563E12	3.0	0.0939060939060939	10648.936170212766	1268.8644688644688	
1.7127118015454575E12	3.0	0.09435009435009435	10598.823529411764	1465.201465201465	
1.7127118015649587E12	3.0	0.0939060939060939	10648.936170212766	1663.003663003663	
1.71271180158446E12	3.0	0.0939060939060939	10648.936170212766	1790.4761904761904	
1.7127118016039612E12	3.0	0.0939060939060939	10648.936170212766	1816.117216117216	
1.7127118016234624E12	3.0	0.09346209346209346	10699.524940617577	1756.0439560439559	
1.7127118016429639E12	3.0	0.09346209346209346	10699.524940617577	1660.8058608058607	
1.712711801662465E12	3.0	0.09301809301809302	10750.596658711216	1563.3699633699632	
1.7127118016819663E12	3.0	0.09301809301809302	10750.596658711216	1485.7142857142856	
1.7127118017014675E12	3.0	0.09301809301809302	10750.596658711216	1432.2344322344322	
1.7127118017209688E12	3.0	0.09257409257409258	10802.158273381294	1373.6263736263736	
1.71271180174047E12	3.0	0.09257409257409258	10802.158273381294	1312.087912087912	
1.7127118017599712E12	3.0	0.09213009213009214	10854.216867469879	1265.2014652014652	
1.7127118017794724E12	3.0	0.0916860916860917	10906.779661016948	1232.2344322344322	
1.7127118017989736E12	3.0	0.09124209124209125	10959.854014598539	1203.6630036630036	
1.712711801818475E12	3.0	0.09124209124209125	10959.854014598539	1184.6153846153845	
1.7127118018379763E12	3.0	0.09124209124209125	10959.854014598539	1186.8131868131868	
1.7127118018574775E12	3.0	0.09124209124209125	10959.854014598539	1205.128205128205	
1.7127118018769788E12	3.0	0.09124209124209125	10959.854014598539	1222.7106227106226	
1.71271180189648E12	3.0	0.0916860916860917	10906.779661016948	1238.095238095238	
1.7127118019159812E12	3.0	0.0916860916860917	10906.779661016948	1243.956043956044	
1.7127118019354824E12	3.0	0.0916860916860917	10906.779661016948	1238.095238095238	
1.7127118019549836E12	3.0	0.09124209124209125	10959.854014598539	1227.8388278388277	
1.7127118019744849E12	3.0	0.09079809079809081	11013.447432762834	1211.7216117216117	
1.712711801993986E12	3.0	0.09079809079809081	11013.447432762834	1187.5457875457876	
1.7127118020134875E12	3.0	0.09035409035409037	11067.567567567567	1161.1721611721612	
1.7127118020329888E12	3.0	0.09079809079809081	11013.447432762834	1153.113553113553	
1.71271180205249E12	3.0	0.09124209124209125	10959.854014598539	1145.054945054945	
1.7127118020719912E12	3.0	0.09124209124209125	10959.854014598539	1123.8095238095236	
1.7127118020914924E12	3.0	0.0916860916860917	10906.779661016948	1108.4249084249084	
1.7127118021109937E12	3.0	0.0916860916860917	10906.779661016948	1111.3553113553112	
1.7127118021304949E12	3.0	0.09213009213009214	10854.216867469879	1128.937728937729	
1.712711802149996E12	3.0	0.09257409257409258	10802.158273381294	1126.007326007326	
1.7127118021694973E12	3.0	0.09257409257409258	10802.158273381294	1107.6923076923076	
1.7127118021889988E12	3.0	0.09257409257409258	10802.158273381294	1093.7728937728937	
1.7127118022085E12	3.0	0.09346209346209346	10699.524940617577	1091.5750915750914	
1.7127118022280012E12	3.0	0.0939060939060939	10648.936170212766	1084.2490842490843	
1.7127118022475024E12	3.0	0.09346209346209346	10699.524940617577	1095.970695970696	
1.7127118022670037E12	3.0	0.09346209346209346	10699.524940617577	1112.087912087912	
1.712711802286505E12	3.0	0.0939060939060939	10648.936170212766	1116.4835164835165	
1.712711802306006E12	3.0	0.0939060939060939	10648.936170212766	1107.6923076923076	
1.7127118023255073E12	3.0	0.09435009435009435	10598.823529411764	1093.040293040293	
1.7127118023450085E12	3.0	0.09435009435009435	10598.823529411764	1079.8534798534797	
1.71271180236451E12	3.0	0.09435009435009435	10598.823529411764	1079.8534798534797	
1.7127118023840112E12	3.0	0.09435009435009435	10598.823529411764	1089.3772893772893	
1.7127118024035125E12	3.0	0.0939060939060939	10648.936170212766	1103.2967032967033	
1.7127118024230137E12	3.0	0.0939060939060939	10648.936170212766	1139.194139194139	
1.712711802442515E12	3.0	0.0939060939060939	10648.936170212766	1193.4065934065934	
1.712711802462016E12	3.0	0.09346209346209346	10699.524940617577	1304.7619047619046	
1.7127118024815173E12	3.0	0.09346209346209346	10699.524940617577	1473.9926739926739	
1.7127118025010186E12	3.0	0.09346209346209346	10699.524940617577	1635.8974358974358	
1.7127118025205198E12	3.0	0.09346209346209346	10699.524940617577	1736.263736263736	
1.712711802540021E12	3.0	0.09301809301809302	10750.596658711216	1758.2417582417581	
1.7127118025595225E12	3.0	0.09301809301809302	10750.596658711216	1720.14652014652	
1.7127118025790237E12	3.0	0.09257409257409258	10802.158273381294	1631.5018315018315	
1.712711802598525E12	3.0	0.09257409257409258	10802.158273381294	1533.3333333333333	
1.7127118026180261E12	3.0	0.09257409257409258	10802.158273381294	1441.0256410256409	
1.7127118026375273E12	3.0	0.09257409257409258	10802.158273381294	1377.2893772893772	
1.7127118026570286E12	3.0	0.09257409257409258	10802.158273381294	1335.5311355311355	
1.7127118026765298E12	3.0	0.09257409257409258	10802.158273381294	1309.1575091575091	
1.712711802696031E12	3.0	0.09257409257409258	10802.158273381294	1276.1904761904761	
1.7127118027155322E12	3.0	0.09257409257409258	10802.158273381294	1235.164835164835	
1.7127118027350337E12	3.0	0.09301809301809302	10750.596658711216	1210.989010989011	
1.712711802754535E12	3.0	0.09301809301809302	10750.596658711216	1205.128205128205	
1.7127118027740361E12	3.0	0.09301809301809302	10750.596658711216	1213.9194139194137	
1.7127118027935374E12	3.0	0.09301809301809302	10750.596658711216	1225.6410256410256	
1.7127118028130386E12	3.0	0.09301809301809302	10750.596658711216	1232.967032967033	
1.7127118028325398E12	3.0	0.09301809301809302	10750.596658711216	1240.2930402930401	
1.712711802852041E12	3.0	0.09301809301809302	10750.596658711216	1242.4908424908424	
1.7127118028715422E12	3.0	0.09301809301809302	10750.596658711216	1237.3626373626373	
1.7127118028910435E12	3.0	0.09346209346209346	10699.524940617577	1219.047619047619	
1.7127118029105447E12	3.0	0.09346209346209346	10699.524940617577	1195.6043956043954	
1.7127118029300461E12	3.0	0.09346209346209346	10699.524940617577	1179.4871794871794	
1.7127118029495474E12	3.0	0.09346209346209346	10699.524940617577	1172.8937728937728	
1.7127118029690486E12	3.0	0.09346209346209346	10699.524940617577	1175.0915750915751	
1.7127118029885498E12	3.0	0.0939060939060939	10648.936170212766	1178.021978021978	
1.712711803008051E12	3.0	0.0939060939060939	10648.936170212766	1170.6959706959706	
1.7127118030275522E12	3.0	0.0939060939060939	10648.936170212766	1172.161172161172	
1.7127118030470535E12	3.0	0.0939060939060939	10648.936170212766	1180.2197802197802	
1.7127118030665547E12	3.0	0.0939060939060939	10648.936170212766	1175.0915750915751	
1.712711803086056E12	3.0	0.0939060939060939	10648.936170212766	1158.974358974359	
1.7127118031055574E12	3.0	0.0939060939060939	10648.936170212766	1145.7875457875457	
1.7127118031250586E12	3.0	0.0939060939060939	10648.936170212766	1141.3919413919414	
1.7127118031445598E12	3.0	0.0939060939060939	10648.936170212766	1139.194139194139	
1.712711803164061E12	3.0	0.0939060939060939	10648.936170212766	1144.3223443223442	
1.7127118031835623E12	3.0	0.0939060939060939	10648.936170212766	1147.985347985348	
1.7127118032030635E12	3.0	0.09346209346209346	10699.524940617577	1139.194139194139	
1.7127118032225647E12	3.0	0.09346209346209346	10699.524940617577	1120.14652014652	
1.712711803242066E12	3.0	0.09346209346209346	10699.524940617577	1112.8205128205127	
1.7127118032615671E12	3.0	0.09346209346209346	10699.524940617577	1123.076923076923	
1.7127118032810684E12	3.0	0.09301809301809302	10750.596658711216	1161.1721611721612	
1.7127118033005698E12	3.0	0.09301809301809302	10750.596658711216	1220.5128205128203	
1.712711803320071E12	3.0	0.09257409257409258	10802.158273381294	1325.2747252747251	
1.7127118033395723E12	3.0	0.09213009213009214	10854.216867469879	1504.7619047619046	
1.7127118033590735E12	3.0	0.09213009213009214	10854.216867469879	1709.8901098901097	
1.7127118033785747E12	3.0	0.0916860916860917	10906.779661016948	1856.4102564102564	
1.712711803398076E12	3.0	0.09257409257409258	10802.158273381294	1912.087912087912	
1.7127118034175771E12	3.0	0.0916860916860917	10906.779661016948	1890.8424908424906	
1.7127118034370784E12	3.0	0.0916860916860917	10906.779661016948	1818.3150183150183	
1.7127118034565796E12	3.0	0.0916860916860917	10906.779661016948	1718.6813186813185	
1.712711803476081E12	3.0	0.09124209124209125	10959.854014598539	1621.245421245421	
1.7127118034955823E12	3.0	0.09124209124209125	10959.854014598539	1534.065934065934	
1.7127118035150835E12	3.0	0.09124209124209125	10959.854014598539	1465.9340659340658	
1.7127118035345847E12	3.0	0.09124209124209125	10959.854014598539	1421.245421245421	
1.712711803554086E12	3.0	0.09124209124209125	10959.854014598539	1374.3589743589744	
1.7127118035735872E12	3.0	0.09124209124209125	10959.854014598539	1339.194139194139	
1.7127118035930884E12	3.0	0.0916860916860917	10906.779661016948	1316.4835164835165	
1.7127118036125896E12	3.0	0.09124209124209125	10959.854014598539	1304.0293040293038	
1.7127118036320908E12	3.0	0.09124209124209125	10959.854014598539	1303.2967032967033	
1.712711803651592E12	3.0	0.0916860916860917	10906.779661016948	1318.6813186813185	
1.7127118036710935E12	3.0	0.09079809079809081	11013.447432762834	1327.4725274725274	
1.7127118036905947E12	3.0	0.09035409035409037	11067.567567567567	1335.5311355311355	
1.712711803710096E12	3.0	0.09213009213009214	10854.216867469879	1334.7985347985348	
1.7127118037295972E12	3.0	0.09257409257409258	10802.158273381294	1313.5531135531135	
1.7127118037490984E12	3.0	0.09301809301809302	10750.596658711216	1293.7728937728937	
1.7127118037685996E12	3.0	0.09257409257409258	10802.158273381294	1284.2490842490843	
1.7127118037881008E12	3.0	0.09301809301809302	10750.596658711216	1266.6666666666665	
1.712711803807602E12	3.0	0.09301809301809302	10750.596658711216	1246.8864468864467	
1.7127118038271033E12	3.0	0.09346209346209346	10699.524940617577	1232.967032967033	
1.7127118038466047E12	3.0	0.09346209346209346	10699.524940617577	1218.3150183150183	
1.712711803866106E12	3.0	0.09346209346209346	10699.524940617577	1215.3846153846152	
1.7127118038856072E12	3.0	0.0939060939060939	10648.936170212766	1211.7216117216117	
1.7127118039051084E12	3.0	0.0939060939060939	10648.936170212766	1205.128205128205	
1.7127118039246096E12	3.0	0.09435009435009435	10598.823529411764	1202.9304029304028	
1.7127118039441108E12	3.0	0.09435009435009435	10598.823529411764	1204.3956043956043	
1.712711803963612E12	3.0	0.09435009435009435	10598.823529411764	1202.9304029304028	
1.7127118039831133E12	3.0	0.09435009435009435	10598.823529411764	1193.4065934065934	
1.7127118040026145E12	3.0	0.0939060939060939	10648.936170212766	1174.3589743589744	
1.7127118040221157E12	3.0	0.09346209346209346	10699.524940617577	1174.3589743589744	
1.7127118040416172E12	3.0	0.09346209346209346	10699.524940617577	1182.4175824175823	
1.7127118040611184E12	3.0	0.0939060939060939	10648.936170212766	1189.7435897435896	
1.7127118040806196E12	3.0	0.09346209346209346	10699.524940617577	1188.278388278388	
1.7127118041001208E12	3.0	0.09346209346209346	10699.524940617577	1190.4761904761904	
1.712711804119622E12	3.0	0.09301809301809302	10750.596658711216	1192.6739926739926	
1.7127118041391233E12	3.0	0.09301809301809302	10750.596658711216	1183.150183150183	
1.7127118041586245E12	3.0	0.09301809301809302	10750.596658711216	1174.3589743589744	
1.7127118041781257E12	3.0	0.09301809301809302	10750.596658711216	1184.6153846153845	
1.712711804197627E12	3.0	0.09257409257409258	10802.158273381294	1224.9084249084249	
1.7127118042171284E12	3.0	0.09257409257409258	10802.158273381294	1312.087912087912	
1.7127118042366296E12	3.0	0.09257409257409258	10802.158273381294	1463.003663003663	
1.7127118042561309E12	3.0	0.09301809301809302	10750.596658711216	1667.3992673992673	
1.712711804275632E12	3.0	0.09257409257409258	10802.158273381294	1868.131868131868	
1.7127118042951333E12	3.0	0.09257409257409258	10802.158273381294	1993.4065934065932	
1.7127118043146345E12	3.0	0.09301809301809302	10750.596658711216	2015.3846153846152	
1.7127118043341357E12	3.0	0.09301809301809302	10750.596658711216	1953.113553113553	
1.712711804353637E12	3.0	0.09301809301809302	10750.596658711216	1844.6886446886447	
1.7127118043731382E12	3.0	0.09301809301809302	10750.596658711216	1737.7289377289376	
1.7127118043926394E12	3.0	0.09301809301809302	10750.596658711216	1657.8754578754579	
1.7127118044121409E12	3.0	0.09346209346209346	10699.524940617577	1596.3369963369962	
1.712711804431642E12	3.0	0.09301809301809302	10750.596658711216	1531.8681318681317	
1.7127118044511433E12	3.0	0.09346209346209346	10699.524940617577	1463.003663003663	
1.7127118044706445E12	3.0	0.09346209346209346	10699.524940617577	1406.5934065934066	
1.7127118044901458E12	3.0	0.09346209346209346	10699.524940617577	1378.7545787545787	
1.712711804509647E12	3.0	0.09346209346209346	10699.524940617577	1369.230769230769	
1.7127118045291482E12	3.0	0.09346209346209346	10699.524940617577	1361.904761904762	
1.7127118045486494E12	3.0	0.0939060939060939	10648.936170212766	1361.1721611721612	
1.7127118045681506E12	3.0	0.0939060939060939	10648.936170212766	1353.8461538461538	
1.712711804587652E12	3.0	0.0939060939060939	10648.936170212766	1335.5311355311355	
1.7127118046071533E12	3.0	0.0939060939060939	10648.936170212766	1318.6813186813185	
1.7127118046266545E12	3.0	0.0939060939060939	10648.936170212766	1312.087912087912	
1.7127118046461558E12	3.0	0.09435009435009435	10598.823529411764	1309.1575091575091	
1.712711804665657E12	3.0	0.0939060939060939	10648.936170212766	1317.9487179487178	
1.7127118046851582E12	3.0	0.0939060939060939	10648.936170212766	1322.3443223443223	
1.7127118047046594E12	3.0	0.0939060939060939	10648.936170212766	1312.087912087912	
1.7127118047241606E12	3.0	0.0939060939060939	10648.936170212766	1307.6923076923076	
1.7127118047436619E12	3.0	0.0939060939060939	10648.936170212766	1298.9010989010987	
1.712711804763163E12	3.0	0.0939060939060939	10648.936170212766	1293.7728937728937	
1.7127118047826646E12	3.0	0.0939060939060939	10648.936170212766	1284.2490842490843	
1.7127118048021658E12	3.0	0.09346209346209346	10699.524940617577	1267.3992673992673	
1.712711804821667E12	3.0	0.09346209346209346	10699.524940617577	1258.6080586080586	
1.7127118048411682E12	3.0	0.09346209346209346	10699.524940617577	1253.4798534798533	
1.7127118048606694E12	3.0	0.09301809301809302	10750.596658711216	1243.956043956044	
1.7127118048801707E12	3.0	0.09301809301809302	10750.596658711216	1233.6996336996335	
1.7127118048996719E12	3.0	0.09301809301809302	10750.596658711216	1216.8498168498168	
1.712711804919173E12	3.0	0.09301809301809302	10750.596658711216	1217.5824175824175	
1.7127118049386743E12	3.0	0.09301809301809302	10750.596658711216	1210.2564102564102	
1.7127118049581758E12	3.0	0.09301809301809302	10750.596658711216	1206.5934065934066	
1.712711804977677E12	3.0	0.09301809301809302	10750.596658711216	1198.5347985347985	
1.7127118049971782E12	3.0	0.09301809301809302	10750.596658711216	1191.9413919413919	
1.7127118050166794E12	3.0	0.09257409257409258	10802.158273381294	1180.952380952381	
1.7127118050361807E12	3.0	0.09301809301809302	10750.596658711216	1169.9633699633698	
1.712711805055682E12	3.0	0.09257409257409258	10802.158273381294	1169.230769230769	
1.712711805075183E12	3.0	0.09257409257409258	10802.158273381294	1190.4761904761904	
1.7127118050946843E12	3.0	0.09301809301809302	10750.596658711216	1221.9780219780218	
1.7127118051141855E12	3.0	0.09257409257409258	10802.158273381294	1263.7362637362637	
1.7127118051336868E12	3.0	0.09301809301809302	10750.596658711216	1336.9963369963368	
1.7127118051531882E12	3.0	0.09301809301809302	10750.596658711216	1469.5970695970695	
1.7127118051726895E12	3.0	0.09301809301809302	10750.596658711216	1643.2234432234432	
1.7127118051921907E12	3.0	0.09301809301809302	10750.596658711216	1816.8498168498168	
1.712711805211692E12	3.0	0.09301809301809302	10750.596658711216	1928.2051282051282	
1.712711805231193E12	3.0	0.09346209346209346	10699.524940617577	1956.0439560439559	
1.7127118052506943E12	3.0	0.09346209346209346	10699.524940617577	1928.2051282051282	
1.7127118052701956E12	3.0	0.0939060939060939	10648.936170212766	1863.7362637362637	
1.7127118052896968E12	3.0	0.09346209346209346	10699.524940617577	1785.3479853479853	
1.712711805309198E12	3.0	0.09346209346209346	10699.524940617577	1688.6446886446886	
1.7127118053286995E12	3.0	0.0939060939060939	10648.936170212766	1605.8608058608058	
1.7127118053482007E12	3.0	0.0939060939060939	10648.936170212766	1536.263736263736	
1.712711805367702E12	3.0	0.0939060939060939	10648.936170212766	1476.923076923077	
1.7127118053872031E12	3.0	0.0939060939060939	10648.936170212766	1428.5714285714284	
1.7127118054067043E12	3.0	0.0939060939060939	10648.936170212766	1402.9304029304028	
1.7127118054262056E12	3.0	0.0939060939060939	10648.936170212766	1389.0109890109889	
1.7127118054457068E12	3.0	0.0939060939060939	10648.936170212766	1386.8131868131868	
1.712711805465208E12	3.0	0.0939060939060939	10648.936170212766	1396.3369963369962	
1.7127118054847092E12	3.0	0.0939060939060939	10648.936170212766	1397.069597069597	
1.7127118055042104E12	3.0	0.0939060939060939	10648.936170212766	1389.0109890109889	
1.712711805523712E12	3.0	0.0939060939060939	10648.936170212766	1382.4175824175823	
1.7127118055432131E12	3.0	0.09346209346209346	10699.524940617577	1386.8131868131868	
1.7127118055627144E12	3.0	0.0939060939060939	10648.936170212766	1379.4871794871794	
1.7127118055822156E12	3.0	0.0939060939060939	10648.936170212766	1359.7069597069597	
1.7127118056017168E12	3.0	0.09346209346209346	10699.524940617577	1331.135531135531	
1.712711805621218E12	3.0	0.09346209346209346	10699.524940617577	1309.89010989011	
1.7127118056407192E12	3.0	0.09346209346209346	10699.524940617577	1298.168498168498	
1.7127118056602205E12	3.0	0.09301809301809302	10750.596658711216	1290.8424908424909	
1.7127118056797217E12	3.0	0.09346209346209346	10699.524940617577	1285.7142857142856	
1.7127118056992231E12	3.0	0.09301809301809302	10750.596658711216	1283.5164835164835	
1.7127118057187244E12	3.0	0.09301809301809302	10750.596658711216	1272.5274725274724	
1.7127118057382256E12	3.0	0.09301809301809302	10750.596658711216	1264.4688644688645	
1.7127118057577268E12	3.0	0.09301809301809302	10750.596658711216	1257.8754578754579	
1.712711805777228E12	3.0	0.09301809301809302	10750.596658711216	1252.014652014652	
1.7127118057967292E12	3.0	0.09301809301809302	10750.596658711216	1239.5604395604396	
1.7127118058162305E12	3.0	0.09257409257409258	10802.158273381294	1230.7692307692307	
1.7127118058357317E12	3.0	0.09257409257409258	10802.158273381294	1229.3040293040292	
1.712711805855233E12	3.0	0.09257409257409258	10802.158273381294	1222.7106227106226	
1.7127118058747341E12	3.0	0.09301809301809302	10750.596658711216	1210.2564102564102	
1.7127118058942356E12	3.0	0.09301809301809302	10750.596658711216	1200.7326007326008	
1.7127118059137368E12	3.0	0.09301809301809302	10750.596658711216	1194.8717948717947	
1.712711805933238E12	3.0	0.09301809301809302	10750.596658711216	1186.080586080586	
1.7127118059527393E12	3.0	0.09301809301809302	10750.596658711216	1181.6849816849815	
1.7127118059722405E12	3.0	0.09301809301809302	10750.596658711216	1191.9413919413919	
1.7127118059917417E12	3.0	0.09301809301809302	10750.596658711216	1233.6996336996335	
1.712711806011243E12	3.0	0.09346209346209346	10699.524940617577	1307.6923076923076	
1.7127118060307441E12	3.0	0.09346209346209346	10699.524940617577	1439.5604395604394	
1.7127118060502454E12	3.0	0.09346209346209346	10699.524940617577	1616.8498168498168	
1.7127118060697468E12	3.0	0.09346209346209346	10699.524940617577	1794.8717948717947	
1.712711806089248E12	3.0	0.09346209346209346	10699.524940617577	1913.5531135531135	
1.7127118061087493E12	3.0	0.0939060939060939	10648.936170212766	1961.172161172161	
1.7127118061282505E12	3.0	0.0939060939060939	10648.936170212766	1946.5201465201465	
1.7127118061477517E12	3.0	0.0939060939060939	10648.936170212766	1870.3296703296703	
1.712711806167253E12	3.0	0.0939060939060939	10648.936170212766	1776.5567765567764	
1.7127118061867542E12	3.0	0.0939060939060939	10648.936170212766	1684.9816849816848	
1.7127118062062554E12	3.0	0.0939060939060939	10648.936170212766	1598.5347985347985	
1.7127118062257566E12	3.0	0.0939060939060939	10648.936170212766	1515.018315018315	
1.7127118062452578E12	3.0	0.0939060939060939	10648.936170212766	1463.003663003663	
1.7127118062647593E12	3.0	0.0939060939060939	10648.936170212766	1428.5714285714284	
1.7127118062842605E12	3.0	0.0939060939060939	10648.936170212766	1388.278388278388	
1.7127118063037617E12	3.0	0.0939060939060939	10648.936170212766	1363.3699633699632	
1.712711806323263E12	3.0	0.0939060939060939	10648.936170212766	1359.7069597069597	
1.7127118063427642E12	3.0	0.09346209346209346	10699.524940617577	1364.8351648351647	
1.7127118063622654E12	3.0	0.0939060939060939	10648.936170212766	1362.6373626373625	
1.7127118063817666E12	3.0	0.09346209346209346	10699.524940617577	1362.6373626373625	
1.7127118064012678E12	3.0	0.09346209346209346	10699.524940617577	1367.7655677655678	
1.712711806420769E12	3.0	0.09346209346209346	10699.524940617577	1362.6373626373625	
1.7127118064402705E12	3.0	0.09301809301809302	10750.596658711216	1342.1245421245421	
1.7127118064597717E12	3.0	0.09346209346209346	10699.524940617577	1321.6117216117216	
1.712711806479273E12	3.0	0.09346209346209346	10699.524940617577	1305.4945054945053	
1.7127118064987742E12	3.0	0.09301809301809302	10750.596658711216	1295.2380952380952	
1.7127118065182754E12	3.0	0.09301809301809302	10750.596658711216	1288.6446886446886	
1.7127118065377766E12	3.0	0.09301809301809302	10750.596658711216	1286.4468864468863	
1.7127118065572778E12	3.0	0.09301809301809302	10750.596658711216	1268.8644688644688	
1.712711806576779E12	3.0	0.09301809301809302	10750.596658711216	1245.4212454212454	
1.7127118065962803E12	3.0	0.09301809301809302	10750.596658711216	1228.5714285714284	
1.7127118066157815E12	3.0	0.09301809301809302	10750.596658711216	1225.6410256410256	
1.712711806635283E12	3.0	0.09257409257409258	10802.158273381294	1221.245421245421	
1.7127118066547842E12	3.0	0.09257409257409258	10802.158273381294	1217.5824175824175	
1.7127118066742854E12	3.0	0.09257409257409258	10802.158273381294	1218.3150183150183	
1.7127118066937866E12	3.0	0.09301809301809302	10750.596658711216	1221.245421245421	
1.7127118067132878E12	3.0	0.09301809301809302	10750.596658711216	1215.3846153846152	
1.712711806732789E12	3.0	0.09301809301809302	10750.596658711216	1202.197802197802	
1.7127118067522903E12	3.0	0.09301809301809302	10750.596658711216	1187.5457875457876	
1.7127118067717915E12	3.0	0.09301809301809302	10750.596658711216	1169.230769230769	
1.7127118067912927E12	3.0	0.09301809301809302	10750.596658711216	1159.7069597069597	
1.7127118068107942E12	3.0	0.09346209346209346	10699.524940617577	1161.904761904762	
1.7127118068302954E12	3.0	0.09346209346209346	10699.524940617577	1159.7069597069597	
1.7127118068497966E12	3.0	0.09346209346209346	10699.524940617577	1162.6373626373625	
1.7127118068692979E12	3.0	0.09346209346209346	10699.524940617577	1177.2893772893772	
1.712711806888799E12	3.0	0.0939060939060939	10648.936170212766	1203.6630036630036	
1.7127118069083003E12	3.0	0.09346209346209346	10699.524940617577	1232.2344322344322	
1.7127118069278015E12	3.0	0.0939060939060939	10648.936170212766	1286.4468864468863	
1.7127118069473027E12	3.0	0.0939060939060939	10648.936170212766	1398.5347985347985	
1.712711806966804E12	3.0	0.0939060939060939	10648.936170212766	1586.8131868131868	
1.7127118069863052E12	3.0	0.0939060939060939	10648.936170212766	1786.8131868131868	
1.7127118070058066E12	3.0	0.0939060939060939	10648.936170212766	1924.5421245421244	
1.7127118070253079E12	3.0	0.0939060939060939	10648.936170212766	1975.091575091575	
1.712711807044809E12	3.0	0.0939060939060939	10648.936170212766	1962.6373626373625	
1.7127118070643103E12	3.0	0.09435009435009435	10598.823529411764	1901.8315018315018	
1.7127118070838115E12	3.0	0.0939060939060939	10648.936170212766	1815.3846153846152	
1.7127118071033127E12	3.0	0.0939060939060939	10648.936170212766	1729.6703296703295	
1.712711807122814E12	3.0	0.0939060939060939	10648.936170212766	1652.0146520146518	
1.7127118071423152E12	3.0	0.0939060939060939	10648.936170212766	1584.6153846153845	
1.7127118071618164E12	3.0	0.09346209346209346	10699.524940617577	1520.14652014652	
1.7127118071813179E12	3.0	0.09346209346209346	10699.524940617577	1463.003663003663	
1.712711807200819E12	3.0	0.09346209346209346	10699.524940617577	1421.245421245421	
1.7127118072203203E12	3.0	0.09346209346209346	10699.524940617577	1395.6043956043954	
1.7127118072398215E12	3.0	0.09346209346209346	10699.524940617577	1383.8827838827838	
1.7127118072593228E12	3.0	0.09301809301809302	10750.596658711216	1377.2893772893772	
1.712711807278824E12	3.0	0.09301809301809302	10750.596658711216	1369.9633699633698	
1.7127118072983252E12	3.0	0.09301809301809302	10750.596658711216	1368.4981684981683	
1.7127118073178264E12	3.0	0.09301809301809302	10750.596658711216	1361.1721611721612	
1.7127118073373276E12	3.0	0.09301809301809302	10750.596658711216	1364.102564102564	
1.7127118073568289E12	3.0	0.09301809301809302	10750.596658711216	1354.5787545787546	
1.7127118073763303E12	3.0	0.09301809301809302	10750.596658711216	1341.3919413919414	
1.7127118073958315E12	3.0	0.09301809301809302	10750.596658711216	1322.3443223443223	
1.7127118074153328E12	3.0	0.09301809301809302	10750.596658711216	1306.9597069597069	
1.712711807434834E12	3.0	0.09301809301809302	10750.596658711216	1297.4358974358975	
1.7127118074543352E12	3.0	0.09257409257409258	10802.158273381294	1281.3186813186812	
1.7127118074738364E12	3.0	0.09301809301809302	10750.596658711216	1273.260073260073	
1.7127118074933376E12	3.0	0.09301809301809302	10750.596658711216	1270.3296703296703	
1.7127118075128389E12	3.0	0.09301809301809302	10750.596658711216	1269.5970695970695	
1.71271180753234E12	3.0	0.09301809301809302	10750.596658711216	1262.2710622710622	
1.7127118075518416E12	3.0	0.09301809301809302	10750.596658711216	1255.6776556776556	
1.7127118075713428E12	3.0	0.09301809301809302	10750.596658711216	1250.5494505494505	
1.712711807590844E12	3.0	0.09301809301809302	10750.596658711216	1239.5604395604396	
1.7127118076103452E12	3.0	0.09301809301809302	10750.596658711216	1219.047619047619	
1.7127118076298464E12	3.0	0.09346209346209346	10699.524940617577	1218.3150183150183	
1.7127118076493477E12	3.0	0.09346209346209346	10699.524940617577	1213.1868131868132	
1.7127118076688489E12	3.0	0.09346209346209346	10699.524940617577	1198.5347985347985	
1.71271180768835E12	3.0	0.09346209346209346	10699.524940617577	1196.3369963369962	
1.7127118077078513E12	3.0	0.09346209346209346	10699.524940617577	1187.5457875457876	
1.7127118077273525E12	3.0	0.0939060939060939	10648.936170212766	1165.5677655677655	
1.712711807746854E12	3.0	0.0939060939060939	10648.936170212766	1158.974358974359	
1.7127118077663552E12	3.0	0.0939060939060939	10648.936170212766	1164.8351648351647	
1.7127118077858564E12	3.0	0.0939060939060939	10648.936170212766	1164.8351648351647	
1.7127118078053577E12	3.0	0.0939060939060939	10648.936170212766	1164.102564102564	
1.712711807824859E12	3.0	0.0939060939060939	10648.936170212766	1169.9633699633698	
1.71271180784436E12	3.0	0.0939060939060939	10648.936170212766	1199.2673992673992	
1.7127118078638613E12	3.0	0.0939060939060939	10648.936170212766	1257.8754578754579	
1.7127118078833625E12	3.0	0.09346209346209346	10699.524940617577	1347.2527472527472	
1.7127118079028638E12	3.0	0.09346209346209346	10699.524940617577	1509.89010989011	
1.7127118079223652E12	3.0	0.09346209346209346	10699.524940617577	1705.4945054945053	
1.7127118079418665E12	3.0	0.09346209346209346	10699.524940617577	1858.6080586080584	
1.7127118079613677E12	3.0	0.09346209346209346	10699.524940617577	1935.5311355311353	
1.712711807980869E12	3.0	0.09346209346209346	10699.524940617577	1940.6593406593406	
1.71271180800037E12	3.0	0.09346209346209346	10699.524940617577	1899.6336996336995	
1.7127118080198713E12	3.0	0.09301809301809302	10750.596658711216	1825.6410256410254	
1.7127118080393726E12	3.0	0.09301809301809302	10750.596658711216	1742.8571428571427	
1.7127118080588738E12	3.0	0.09301809301809302	10750.596658711216	1667.3992673992673	
1.712711808078375E12	3.0	0.09301809301809302	10750.596658711216	1604.3956043956043	
1.7127118080978762E12	3.0	0.09301809301809302	10750.596658711216	1546.5201465201465	
1.7127118081173777E12	3.0	0.09301809301809302	10750.596658711216	1490.10989010989	
1.712711808136879E12	3.0	0.09257409257409258	10802.158273381294	1438.095238095238	
1.7127118081563801E12	3.0	0.09257409257409258	10802.158273381294	1403.6630036630036	
1.7127118081758813E12	3.0	0.09257409257409258	10802.158273381294	1391.2087912087911	
1.7127118081953826E12	3.0	0.09257409257409258	10802.158273381294	1395.6043956043954	
1.7127118082148838E12	3.0	0.09257409257409258	10802.158273381294	1400.7326007326005	
1.712711808234385E12	3.0	0.09257409257409258	10802.158273381294	1405.128205128205	
1.7127118082538862E12	3.0	0.09257409257409258	10802.158273381294	1408.058608058608	
1.7127118082733875E12	3.0	0.09257409257409258	10802.158273381294	1400.0	
1.712711808292889E12	3.0	0.09301809301809302	10750.596658711216	1385.3479853479853	
1.7127118083123901E12	3.0	0.09301809301809302	10750.596658711216	1367.032967032967	
1.7127118083318914E12	3.0	0.09257409257409258	10802.158273381294	1350.9157509157508	
1.7127118083513926E12	3.0	0.09257409257409258	10802.158273381294	1335.5311355311355	
1.7127118083708938E12	3.0	0.09301809301809302	10750.596658711216	1320.8791208791208	
1.712711808390395E12	3.0	0.09257409257409258	10802.158273381294	1304.7619047619046	
1.7127118084098962E12	3.0	0.09301809301809302	10750.596658711216	1293.7728937728937	
1.7127118084293975E12	3.0	0.09301809301809302	10750.596658711216	1284.2490842490843	
1.7127118084488987E12	3.0	0.09301809301809302	10750.596658711216	1276.1904761904761	
1.7127118084684E12	3.0	0.09301809301809302	10750.596658711216	1265.9340659340658	
1.7127118084879014E12	3.0	0.09346209346209346	10699.524940617577	1264.4688644688645	
1.7127118085074026E12	3.0	0.09346209346209346	10699.524940617577	1259.3406593406592	
1.7127118085269038E12	3.0	0.09346209346209346	10699.524940617577	1259.3406593406592	
1.712711808546405E12	3.0	0.09346209346209346	10699.524940617577	1258.6080586080586	
1.7127118085659062E12	3.0	0.09346209346209346	10699.524940617577	1249.084249084249	
1.7127118085854075E12	3.0	0.09346209346209346	10699.524940617577	1236.6300366300366	
1.7127118086049087E12	3.0	0.09257409257409258	10802.158273381294	1222.7106227106226	
1.71271180862441E12	3.0	0.09257409257409258	10802.158273381294	1210.2564102564102	
1.7127118086439111E12	3.0	0.09257409257409258	10802.158273381294	1209.5238095238094	
1.7127118086634126E12	3.0	0.09301809301809302	10750.596658711216	1208.7912087912086	
1.7127118086829138E12	3.0	0.09346209346209346	10699.524940617577	1208.7912087912086	
1.712711808702415E12	3.0	0.09346209346209346	10699.524940617577	1219.047619047619	
1.7127118087219163E12	3.0	0.09346209346209346	10699.524940617577	1243.956043956044	
1.7127118087414175E12	3.0	0.09346209346209346	10699.524940617577	1295.2380952380952	
1.7127118087609187E12	3.0	0.09346209346209346	10699.524940617577	1380.2197802197802	
1.71271180878042E12	3.0	0.09346209346209346	10699.524940617577	1523.0769230769229	
1.7127118087999211E12	3.0	0.09346209346209346	10699.524940617577	1702.5641025641025	
1.7127118088194224E12	3.0	0.09301809301809302	10750.596658711216	1860.8058608058607	
1.7127118088389236E12	3.0	0.09301809301809302	10750.596658711216	1952.3809523809523	
1.712711808858425E12	3.0	0.09346209346209346	10699.524940617577	1959.7069597069597	
1.7127118088779263E12	3.0	0.09346209346209346	10699.524940617577	1906.227106227106	
1.7127118088974275E12	3.0	0.09346209346209346	10699.524940617577	1823.4432234432234	
1.7127118089169287E12	3.0	0.09301809301809302	10750.596658711216	1735.5311355311353	
1.71271180893643E12	3.0	0.09301809301809302	10750.596658711216	1657.8754578754579	
1.7127118089559312E12	3.0	0.09301809301809302	10750.596658711216	1587.5457875457873	
1.7127118089754324E12	3.0	0.09213009213009214	10854.216867469879	1517.9487179487178	
1.7127118089949336E12	3.0	0.09213009213009214	10854.216867469879	1455.6776556776556	
1.7127118090144348E12	3.0	0.09213009213009214	10854.216867469879	1405.8608058608058	
1.7127118090339363E12	3.0	0.09257409257409258	10802.158273381294	1385.3479853479853	
1.7127118090534375E12	3.0	0.09301809301809302	10750.596658711216	1383.150183150183	
1.7127118090729387E12	3.0	0.09301809301809302	10750.596658711216	1388.278388278388	
1.71271180909244E12	3.0	0.09301809301809302	10750.596658711216	1389.0109890109889	
1.7127118091119412E12	3.0	0.09301809301809302	10750.596658711216	1382.4175824175823	
1.7127118091314424E12	3.0	0.09346209346209346	10699.524940617577	1378.021978021978	
1.7127118091509436E12	3.0	0.09301809301809302	10750.596658711216	1372.161172161172	
1.7127118091704448E12	3.0	0.09301809301809302	10750.596658711216	1372.161172161172	
1.712711809189946E12	3.0	0.09213009213009214	10854.216867469879	1358.974358974359	
1.7127118092094473E12	3.0	0.09213009213009214	10854.216867469879	1350.9157509157508	
1.7127118092289487E12	3.0	0.09213009213009214	10854.216867469879	1346.5201465201465	
1.71271180924845E12	3.0	0.09257409257409258	10802.158273381294	1333.3333333333333	
1.7127118092679512E12	3.0	0.09301809301809302	10750.596658711216	1317.9487179487178	
1.7127118092874524E12	3.0	0.09346209346209346	10699.524940617577	1303.2967032967033	
1.7127118093069536E12	3.0	0.0939060939060939	10648.936170212766	1293.7728937728937	
1.7127118093264548E12	3.0	0.0939060939060939	10648.936170212766	1281.3186813186812	
1.712711809345956E12	3.0	0.0939060939060939	10648.936170212766	1279.120879120879	
1.7127118093654573E12	3.0	0.0939060939060939	10648.936170212766	1273.260073260073	
1.7127118093849585E12	3.0	0.0939060939060939	10648.936170212766	1261.5384615384614	
1.71271180940446E12	3.0	0.0939060939060939	10648.936170212766	1252.7472527472526	
1.7127118094239612E12	3.0	0.09257409257409258	10802.158273381294	1241.7582417582416	
1.7127118094434624E12	3.0	0.09346209346209346	10699.524940617577	1238.095238095238	
1.7127118094629636E12	3.0	0.09479409479409479	10549.180327868853	1241.0256410256409	
1.7127118094824648E12	3.0	0.09435009435009435	10598.823529411764	1243.2234432234432	
1.712711809501966E12	3.0	0.09435009435009435	10598.823529411764	1237.3626373626373	
1.7127118095214673E12	3.0	0.0939060939060939	10648.936170212766	1227.8388278388277	
1.7127118095409685E12	3.0	0.0939060939060939	10648.936170212766	1215.3846153846152	
1.7127118095604697E12	3.0	0.0939060939060939	10648.936170212766	1215.3846153846152	
1.712711809579971E12	3.0	0.09346209346209346	10699.524940617577	1232.2344322344322	
1.7127118095994724E12	3.0	0.09301809301809302	10750.596658711216	1241.7582417582416	
1.7127118096189736E12	3.0	0.09213009213009214	10854.216867469879	1260.8058608058607	
1.7127118096384749E12	3.0	0.09346209346209346	10699.524940617577	1306.227106227106	
1.712711809657976E12	3.0	0.0939060939060939	10648.936170212766	1445.4212454212454	
1.7127118096774773E12	3.0	0.09301809301809302	10750.596658711216	1677.6556776556774	
1.7127118096969785E12	3.0	0.0939060939060939	10648.936170212766	1925.2747252747251	
1.7127118097164797E12	3.0	0.09479409479409479	10549.180327868853	2113.5531135531132	
1.712711809735981E12	3.0	0.09479409479409479	10549.180327868853	2216.117216117216	
1.7127118097554822E12	3.0	0.0939060939060939	10648.936170212766	2235.8974358974356	
1.7127118097749836E12	3.0	0.09213009213009214	10854.216867469879	2166.300366300366	
1.7127118097944849E12	3.0	0.09257409257409258	10802.158273381294	2038.0952380952378	
1.712711809813986E12	3.0	0.09257409257409258	10802.158273381294	1905.4945054945053	
1.7127118098334873E12	3.0	0.09213009213009214	10854.216867469879	1792.6739926739926	
1.7127118098529885E12	3.0	0.09213009213009214	10854.216867469879	1698.168498168498	
1.7127118098724897E12	3.0	0.09257409257409258	10802.158273381294	1616.117216117216	
1.712711809891991E12	3.0	0.09301809301809302	10750.596658711216	1562.6373626373625	
1.7127118099114922E12	3.0	0.09301809301809302	10750.596658711216	1524.5421245421244	
1.7127118099309934E12	3.0	0.09301809301809302	10750.596658711216	1487.179487179487	
1.7127118099504946E12	3.0	0.09301809301809302	10750.596658711216	1473.260073260073	
1.712711809969996E12	3.0	0.09301809301809302	10750.596658711216	1479.120879120879	
1.7127118099894973E12	3.0	0.09301809301809302	10750.596658711216	1487.9120879120878	
1.7127118100089985E12	3.0	0.09346209346209346	10699.524940617577	1501.8315018315018	
1.7127118100284998E12	3.0	0.0939060939060939	10648.936170212766	1497.4358974358972	
1.712711810048001E12	3.0	0.09435009435009435	10598.823529411764	1476.1904761904761	
1.7127118100675022E12	3.0	0.09435009435009435	10598.823529411764	1457.8754578754579	
1.7127118100870034E12	3.0	0.09435009435009435	10598.823529411764	1441.7582417582416	
1.7127118101065046E12	3.0	0.09435009435009435	10598.823529411764	1424.9084249084249	
1.7127118101260059E12	3.0	0.09435009435009435	10598.823529411764	1409.5238095238094	
1.7127118101455073E12	3.0	0.09435009435009435	10598.823529411764	1396.3369963369962	
1.7127118101650085E12	3.0	0.09435009435009435	10598.823529411764	1374.3589743589744	
1.7127118101845098E12	3.0	0.09435009435009435	10598.823529411764	1347.2527472527472	
1.712711810204011E12	3.0	0.09435009435009435	10598.823529411764	1334.065934065934	
1.7127118102235122E12	3.0	0.09479409479409479	10549.180327868853	1326.7399267399267	
1.7127118102430134E12	3.0	0.09479409479409479	10549.180327868853	1323.076923076923	
1.7127118102625146E12	3.0	0.09479409479409479	10549.180327868853	1317.216117216117	
1.7127118102820159E12	3.0	0.09435009435009435	10598.823529411764	1309.1575091575091	
1.712711810301517E12	3.0	0.0939060939060939	10648.936170212766	1301.8315018315018	
1.7127118103210186E12	3.0	0.0939060939060939	10648.936170212766	1298.9010989010987	
1.7127118103405198E12	3.0	0.0939060939060939	10648.936170212766	1298.9010989010987	
1.712711810360021E12	3.0	0.09346209346209346	10699.524940617577	1289.3772893772893	
1.7127118103795222E12	3.0	0.09301809301809302	10750.596658711216	1280.5860805860805	
1.7127118103990234E12	3.0	0.09301809301809302	10750.596658711216	1279.120879120879	
1.7127118104185247E12	3.0	0.09301809301809302	10750.596658711216	1279.8534798534797	
1.712711810438026E12	3.0	0.09346209346209346	10699.524940617577	1271.7948717948716	
1.712711810457527E12	3.0	0.09346209346209346	10699.524940617577	1270.3296703296703	
1.7127118104770283E12	3.0	0.09257409257409258	10802.158273381294	1285.7142857142856	
1.7127118104965295E12	3.0	0.0916860916860917	10906.779661016948	1326.7399267399267	
1.712711810516031E12	3.0	0.09124209124209125	10959.854014598539	1456.4102564102564	
1.7127118105355322E12	3.0	0.09079809079809081	11013.447432762834	1700.3663003663003	
1.7127118105550334E12	3.0	0.09124209124209125	10959.854014598539	1986.080586080586	
1.7127118105745347E12	3.0	0.0916860916860917	10906.779661016948	2219.78021978022	
1.712711810594036E12	3.0	0.09257409257409258	10802.158273381294	2347.252747252747	
1.712711810613537E12	3.0	0.09213009213009214	10854.216867469879	2351.6483516483513	
1.7127118106330383E12	3.0	0.09213009213009214	10854.216867469879	2268.8644688644686	
1.7127118106525396E12	3.0	0.09213009213009214	10854.216867469879	2156.043956043956	
1.7127118106720408E12	3.0	0.09257409257409258	10802.158273381294	2059.3406593406594	
1.7127118106915422E12	3.0	0.09257409257409258	10802.158273381294	1972.161172161172	
1.7127118107110435E12	3.0	0.09301809301809302	10750.596658711216	1881.3186813186812	
1.7127118107305447E12	3.0	0.09301809301809302	10750.596658711216	1796.3369963369962	
1.712711810750046E12	3.0	0.09346209346209346	10699.524940617577	1706.227106227106	
1.712711810769547E12	3.0	0.09346209346209346	10699.524940617577	1629.3040293040292	
1.7127118107890483E12	3.0	0.09301809301809302	10750.596658711216	1577.2893772893772	
1.7127118108085496E12	3.0	0.09257409257409258	10802.158273381294	1553.8461538461538	
1.7127118108280508E12	3.0	0.09257409257409258	10802.158273381294	1547.2527472527472	
1.712711810847552E12	3.0	0.09257409257409258	10802.158273381294	1551.6483516483515	
1.7127118108670532E12	3.0	0.09257409257409258	10802.158273381294	1558.2417582417581	
1.7127118108865547E12	3.0	0.09257409257409258	10802.158273381294	1562.6373626373625	
1.712711810906056E12	3.0	0.0939060939060939	10648.936170212766	1565.5677655677655	
1.7127118109255571E12	3.0	0.0939060939060939	10648.936170212766	1556.0439560439559	
1.7127118109450583E12	3.0	0.0939060939060939	10648.936170212766	1527.4725274725274	
1.7127118109645596E12	3.0	0.0939060939060939	10648.936170212766	1501.098901098901	
1.7127118109840608E12	3.0	0.0939060939060939	10648.936170212766	1473.260073260073	
1.712711811003562E12	3.0	0.0939060939060939	10648.936170212766	1443.956043956044	
1.7127118110230632E12	3.0	0.09346209346209346	10699.524940617577	1410.989010989011	
1.7127118110425645E12	3.0	0.0939060939060939	10648.936170212766	1383.150183150183	
1.712711811062066E12	3.0	0.0939060939060939	10648.936170212766	1362.6373626373625	
1.7127118110815671E12	3.0	0.09346209346209346	10699.524940617577	1357.5091575091574	
1.7127118111010684E12	3.0	0.09301809301809302	10750.596658711216	1350.9157509157508	
1.7127118111205696E12	3.0	0.09301809301809302	10750.596658711216	1339.194139194139	
1.7127118111400708E12	3.0	0.09301809301809302	10750.596658711216	1317.9487179487178	
1.712711811159572E12	3.0	0.09301809301809302	10750.596658711216	1307.6923076923076	
1.7127118111790732E12	3.0	0.09301809301809302	10750.596658711216	1312.087912087912	
1.7127118111985745E12	3.0	0.09257409257409258	10802.158273381294	1302.5641025641025	
1.7127118112180757E12	3.0	0.09301809301809302	10750.596658711216	1280.5860805860805	
1.712711811237577E12	3.0	0.09301809301809302	10750.596658711216	1262.2710622710622	
1.7127118112570784E12	3.0	0.09257409257409258	10802.158273381294	1248.3516483516482	
1.7127118112765796E12	3.0	0.09257409257409258	10802.158273381294	1250.5494505494505	
1.7127118112960808E12	3.0	0.09257409257409258	10802.158273381294	1252.014652014652	
1.712711811315582E12	3.0	0.09213009213009214	10854.216867469879	1243.2234432234432	
1.7127118113350833E12	3.0	0.09213009213009214	10854.216867469879	1241.0256410256409	
1.7127118113545845E12	3.0	0.09213009213009214	10854.216867469879	1275.4578754578754	
1.7127118113740857E12	3.0	0.09257409257409258	10802.158273381294	1393.4065934065934	
1.712711811393587E12	3.0	0.09257409257409258	10802.158273381294	1644.6886446886447	
1.7127118114130881E12	3.0	0.09257409257409258	10802.158273381294	1986.080586080586	
1.7127118114325896E12	3.0	0.09213009213009214	10854.216867469879	2290.842490842491	
1.7127118114520908E12	3.0	0.09257409257409258	10802.158273381294	2459.3406593406594	
1.712711811471592E12	3.0	0.09257409257409258	10802.158273381294	2493.040293040293	
1.7127118114910933E12	3.0	0.09301809301809302	10750.596658711216	2427.8388278388275	
1.7127118115105945E12	3.0	0.09301809301809302	10750.596658711216	2315.7509157509157	
1.7127118115300957E12	3.0	0.09301809301809302	10750.596658711216	2213.9194139194137	
1.712711811549597E12	3.0	0.09301809301809302	10750.596658711216	2117.2161172161173	
1.7127118115690981E12	3.0	0.09301809301809302	10750.596658711216	2026.3736263736262	
1.7127118115885994E12	3.0	0.09301809301809302	10750.596658711216	1939.9267399267399	
1.7127118116081006E12	3.0	0.09346209346209346	10699.524940617577	1851.2820512820513	
1.712711811627602E12	3.0	0.09346209346209346	10699.524940617577	1755.311355311355	
1.7127118116471033E12	3.0	0.09301809301809302	10750.596658711216	1676.923076923077	
1.7127118116666045E12	3.0	0.09301809301809302	10750.596658711216	1624.1758241758241	
1.7127118116861057E12	3.0	0.0939060939060939	10648.936170212766	1604.3956043956043	
1.712711811705607E12	3.0	0.09435009435009435	10598.823529411764	1607.3260073260071	
1.7127118117251082E12	3.0	0.0939060939060939	10648.936170212766	1616.8498168498168	
1.7127118117446094E12	3.0	0.09435009435009435	10598.823529411764	1641.0256410256409	
1.7127118117641106E12	3.0	0.09435009435009435	10598.823529411764	1658.6080586080584	
1.7127118117836118E12	3.0	0.09435009435009435	10598.823529411764	1643.2234432234432	
1.7127118118031133E12	3.0	0.0939060939060939	10648.936170212766	1598.5347985347985	
1.7127118118226145E12	3.0	0.0939060939060939	10648.936170212766	1550.18315018315	
1.7127118118421157E12	3.0	0.0939060939060939	10648.936170212766	1508.4249084249084	
1.712711811861617E12	3.0	0.0939060939060939	10648.936170212766	1473.260073260073	
1.7127118118811182E12	3.0	0.0939060939060939	10648.936170212766	1444.6886446886447	
1.7127118119006194E12	3.0	0.09346209346209346	10699.524940617577	1432.2344322344322	
1.7127118119201206E12	3.0	0.09301809301809302	10750.596658711216	1421.245421245421	
1.7127118119396218E12	3.0	0.09301809301809302	10750.596658711216	1399.2673992673992	
1.712711811959123E12	3.0	0.09213009213009214	10854.216867469879	1371.4285714285713	
1.7127118119786243E12	3.0	0.09257409257409258	10802.158273381294	1339.9267399267399	
1.7127118119981257E12	3.0	0.09257409257409258	10802.158273381294	1307.6923076923076	
1.712711812017627E12	3.0	0.09213009213009214	10854.216867469879	1287.179487179487	
1.7127118120371282E12	3.0	0.0916860916860917	10906.779661016948	1280.5860805860805	
1.7127118120566294E12	3.0	0.08991008991008992	11122.22222222222	1286.4468864468863	
1.7127118120761306E12	3.0	0.08813408813408816	11346.347607052894	1289.3772893772893	
1.7127118120956318E12	3.0	0.0916860916860917	10906.779661016948	1277.6556776556777	
1.712711812115133E12	3.0	0.09257409257409258	10802.158273381294	1255.6776556776556	
1.7127118121346343E12	3.0	0.09213009213009214	10854.216867469879	1236.6300366300366	
1.7127118121541355E12	3.0	0.09213009213009214	10854.216867469879	1227.8388278388277	
1.712711812173637E12	3.0	0.09213009213009214	10854.216867469879	1218.3150183150183	
1.7127118121931382E12	3.0	0.09213009213009214	10854.216867469879	1220.5128205128203	
1.7127118122126394E12	3.0	0.09213009213009214	10854.216867469879	1234.4322344322343	
1.7127118122321406E12	3.0	0.09213009213009214	10854.216867469879	1285.7142857142856	
1.7127118122516418E12	3.0	0.09257409257409258	10802.158273381294	1446.8864468864467	
1.712711812271143E12	3.0	0.09301809301809302	10750.596658711216	1738.4615384615383	
1.7127118122906443E12	3.0	0.09301809301809302	10750.596658711216	2059.3406593406594	
1.7127118123101455E12	3.0	0.09346209346209346	10699.524940617577	2297.4358974358975	
1.7127118123296467E12	3.0	0.09346209346209346	10699.524940617577	2401.4652014652015	
1.712711812349148E12	3.0	0.09346209346209346	10699.524940617577	2391.941391941392	
1.7127118123686494E12	3.0	0.09346209346209346	10699.524940617577	2314.285714285714	
1.7127118123881506E12	3.0	0.0939060939060939	10648.936170212766	2205.8608058608056	
1.7127118124076519E12	3.0	0.0939060939060939	10648.936170212766	2102.5641025641025	
1.712711812427153E12	3.0	0.09435009435009435	10598.823529411764	2008.7912087912086	
1.7127118124466543E12	3.0	0.09435009435009435	10598.823529411764	1927.4725274725274	
1.7127118124661555E12	3.0	0.09435009435009435	10598.823529411764	1849.084249084249	
1.7127118124856567E12	3.0	0.09435009435009435	10598.823529411764	1766.3003663003662	
1.712711812505158E12	3.0	0.09346209346209346	10699.524940617577	1682.051282051282	
1.7127118125246592E12	3.0	0.09346209346209346	10699.524940617577	1616.117216117216	
1.7127118125441606E12	3.0	0.0939060939060939	10648.936170212766	1573.6263736263736	
1.7127118125636619E12	3.0	0.09435009435009435	10598.823529411764	1556.7765567765566	
1.712711812583163E12	3.0	0.09435009435009435	10598.823529411764	1569.230769230769	
1.7127118126026643E12	3.0	0.09435009435009435	10598.823529411764	1575.8241758241757	
1.7127118126221655E12	3.0	0.09435009435009435	10598.823529411764	1564.8351648351647	
1.7127118126416667E12	3.0	0.0939060939060939	10648.936170212766	1537.7289377289376	
1.712711812661168E12	3.0	0.0939060939060939	10648.936170212766	1506.227106227106	
1.7127118126806692E12	3.0	0.0939060939060939	10648.936170212766	1476.923076923077	
1.7127118127001704E12	3.0	0.09346209346209346	10699.524940617577	1454.212454212454	
1.7127118127196716E12	3.0	0.09346209346209346	10699.524940617577	1419.7802197802198	
1.712711812739173E12	3.0	0.09301809301809302	10750.596658711216	1390.4761904761904	
1.7127118127586743E12	3.0	0.09301809301809302	10750.596658711216	1364.8351648351647	
1.7127118127781755E12	3.0	0.09257409257409258	10802.158273381294	1326.007326007326	
1.7127118127976768E12	3.0	0.09257409257409258	10802.158273381294	1300.3663003663003	
1.712711812817178E12	3.0	0.09257409257409258	10802.158273381294	1274.7252747252746	
1.7127118128366792E12	3.0	0.09257409257409258	10802.158273381294	1248.3516483516482	
1.7127118128561804E12	3.0	0.09257409257409258	10802.158273381294	1229.3040293040292	
1.7127118128756816E12	3.0	0.09257409257409258	10802.158273381294	1208.7912087912086	
1.7127118128951829E12	3.0	0.09257409257409258	10802.158273381294	1199.2673992673992	
1.7127118129146843E12	3.0	0.09257409257409258	10802.158273381294	1205.128205128205	
1.7127118129341855E12	3.0	0.09213009213009214	10854.216867469879	1197.069597069597	
1.7127118129536868E12	3.0	0.09213009213009214	10854.216867469879	1175.8241758241757	
1.712711812973188E12	3.0	0.09213009213009214	10854.216867469879	1164.8351648351647	
1.7127118129926892E12	3.0	0.0916860916860917	10906.779661016948	1159.7069597069597	
1.7127118130121904E12	3.0	0.09213009213009214	10854.216867469879	1156.7765567765566	
1.7127118130316917E12	3.0	0.09213009213009214	10854.216867469879	1158.974358974359	
1.7127118130511929E12	3.0	0.09257409257409258	10802.158273381294	1156.7765567765566	
1.712711813070694E12	3.0	0.09257409257409258	10802.158273381294	1153.8461538461538	
1.7127118130901953E12	3.0	0.09301809301809302	10750.596658711216	1200.0	
1.7127118131096968E12	3.0	0.09301809301809302	10750.596658711216	1358.2417582417581	
1.712711813129198E12	3.0	0.09301809301809302	10750.596658711216	1641.0256410256409	
1.7127118131486992E12	3.0	0.09301809301809302	10750.596658711216	1954.5787545787543	
1.7127118131682004E12	3.0	0.09346209346209346	10699.524940617577	2182.4175824175823	
1.7127118131877017E12	3.0	0.09346209346209346	10699.524940617577	2271.062271062271	
1.712711813207203E12	3.0	0.09346209346209346	10699.524940617577	2243.9560439560437	
1.712711813226704E12	3.0	0.0939060939060939	10648.936170212766	2147.9853479853477	
1.7127118132462053E12	3.0	0.0939060939060939	10648.936170212766	2039.5604395604394	
1.7127118132657065E12	3.0	0.09435009435009435	10598.823529411764	1945.054945054945	
1.712711813285208E12	3.0	0.09435009435009435	10598.823529411764	1854.212454212454	
1.7127118133047092E12	3.0	0.09435009435009435	10598.823529411764	1780.9523809523807	
1.7127118133242104E12	3.0	0.09435009435009435	10598.823529411764	1694.5054945054944	
1.7127118133437117E12	3.0	0.09435009435009435	10598.823529411764	1607.3260073260071	
1.712711813363213E12	3.0	0.0939060939060939	10648.936170212766	1527.4725274725274	
1.712711813382714E12	3.0	0.09435009435009435	10598.823529411764	1461.5384615384614	
1.7127118134022153E12	3.0	0.0939060939060939	10648.936170212766	1421.9780219780218	
1.7127118134217166E12	3.0	0.0939060939060939	10648.936170212766	1415.3846153846152	
1.7127118134412178E12	3.0	0.0939060939060939	10648.936170212766	1427.8388278388277	
1.712711813460719E12	3.0	0.0939060939060939	10648.936170212766	1449.084249084249	
1.7127118134802205E12	3.0	0.09346209346209346	10699.524940617577	1456.4102564102564	
1.7127118134997217E12	3.0	0.09346209346209346	10699.524940617577	1444.6886446886447	
1.712711813519223E12	3.0	0.09301809301809302	10750.596658711216	1408.7912087912086	
1.712711813538724E12	3.0	0.09301809301809302	10750.596658711216	1365.5677655677655	
1.7127118135582253E12	3.0	0.09301809301809302	10750.596658711216	1338.4615384615383	
1.7127118135777266E12	3.0	0.09301809301809302	10750.596658711216	1322.3443223443223	
1.7127118135972278E12	3.0	0.09301809301809302	10750.596658711216	1303.2967032967033	
1.712711813616729E12	3.0	0.09257409257409258	10802.158273381294	1271.7948717948716	
1.7127118136362302E12	3.0	0.09257409257409258	10802.158273381294	1247.6190476190475	
1.7127118136557317E12	3.0	0.09257409257409258	10802.158273381294	1217.5824175824175	
1.712711813675233E12	3.0	0.09257409257409258	10802.158273381294	1196.3369963369962	
1.7127118136947341E12	3.0	0.09257409257409258	10802.158273381294	1191.9413919413919	
1.7127118137142354E12	3.0	0.09257409257409258	10802.158273381294	1174.3589743589744	
1.7127118137337366E12	3.0	0.09257409257409258	10802.158273381294	1149.4505494505493	
1.7127118137532378E12	3.0	0.09213009213009214	10854.216867469879	1130.4029304029302	
1.712711813772739E12	3.0	0.09257409257409258	10802.158273381294	1123.076923076923	
1.7127118137922402E12	3.0	0.09257409257409258	10802.158273381294	1118.6813186813185	
1.7127118138117415E12	3.0	0.09257409257409258	10802.158273381294	1115.018315018315	
1.7127118138312427E12	3.0	0.09257409257409258	10802.158273381294	1104.7619047619046	
1.7127118138507441E12	3.0	0.09257409257409258	10802.158273381294	1092.3076923076922	
1.7127118138702454E12	3.0	0.09257409257409258	10802.158273381294	1077.6556776556777	
1.7127118138897466E12	3.0	0.09257409257409258	10802.158273381294	1063.7362637362637	
1.7127118139092478E12	3.0	0.09257409257409258	10802.158273381294	1053.4798534798533	
1.712711813928749E12	3.0	0.09301809301809302	10750.596658711216	1063.7362637362637	
1.7127118139482502E12	3.0	0.09301809301809302	10750.596658711216	1129.6703296703297	
1.7127118139677515E12	3.0	0.09346209346209346	10699.524940617577	1293.7728937728937	
1.7127118139872527E12	3.0	0.09346209346209346	10699.524940617577	1570.6959706959706	
1.712711814006754E12	3.0	0.09346209346209346	10699.524940617577	1884.9816849816848	
1.7127118140262554E12	3.0	0.09346209346209346	10699.524940617577	2131.8681318681315	
1.7127118140457566E12	3.0	0.0939060939060939	10648.936170212766	2246.153846153846	
1.7127118140652578E12	3.0	0.0939060939060939	10648.936170212766	2234.4322344322345	
1.712711814084759E12	3.0	0.0939060939060939	10648.936170212766	2144.322344322344	
1.7127118141042603E12	3.0	0.0939060939060939	10648.936170212766	2031.5018315018315	
1.7127118141237615E12	3.0	0.09435009435009435	10598.823529411764	1937.7289377289376	
1.7127118141432627E12	3.0	0.09435009435009435	10598.823529411764	1864.4688644688642	
1.712711814162764E12	3.0	0.09435009435009435	10598.823529411764	1798.5347985347985	
1.7127118141822651E12	3.0	0.09435009435009435	10598.823529411764	1722.3443223443223	
1.7127118142017664E12	3.0	0.0939060939060939	10648.936170212766	1641.7582417582416	
1.7127118142212678E12	3.0	0.0939060939060939	10648.936170212766	1553.113553113553	
1.712711814240769E12	3.0	0.0939060939060939	10648.936170212766	1471.062271062271	
1.7127118142602703E12	3.0	0.09346209346209346	10699.524940617577	1413.9194139194137	
1.7127118142797715E12	3.0	0.09301809301809302	10750.596658711216	1383.150183150183	
1.7127118142992727E12	3.0	0.09301809301809302	10750.596658711216	1379.4871794871794	
1.712711814318774E12	3.0	0.09301809301809302	10750.596658711216	1396.3369963369962	
1.7127118143382751E12	3.0	0.09257409257409258	10802.158273381294	1416.117216117216	
1.7127118143577764E12	3.0	0.09257409257409258	10802.158273381294	1417.5824175824175	
1.7127118143772776E12	3.0	0.09257409257409258	10802.158273381294	1398.5347985347985	
1.712711814396779E12	3.0	0.09257409257409258	10802.158273381294	1374.3589743589744	
1.7127118144162803E12	3.0	0.09257409257409258	10802.158273381294	1337.7289377289376	
1.7127118144357815E12	3.0	0.09257409257409258	10802.158273381294	1286.4468864468863	
1.7127118144552827E12	3.0	0.09257409257409258	10802.158273381294	1251.2820512820513	
1.712711814474784E12	3.0	0.09257409257409258	10802.158273381294	1240.2930402930401	
1.7127118144942852E12	3.0	0.09257409257409258	10802.158273381294	1223.4432234432234	
1.7127118145137864E12	3.0	0.09213009213009214	10854.216867469879	1200.0	
1.7127118145332876E12	3.0	0.09257409257409258	10802.158273381294	1181.6849816849815	
1.7127118145527888E12	3.0	0.09257409257409258	10802.158273381294	1143.5897435897434	
1.71271181457229E12	3.0	0.09257409257409258	10802.158273381294	1116.4835164835165	
1.7127118145917915E12	3.0	0.09257409257409258	10802.158273381294	1106.227106227106	
1.7127118146112927E12	3.0	0.09257409257409258	10802.158273381294	1099.6336996336995	
1.712711814630794E12	3.0	0.09257409257409258	10802.158273381294	1083.5164835164835	
1.7127118146502952E12	3.0	0.09301809301809302	10750.596658711216	1066.6666666666665	
1.7127118146697964E12	3.0	0.09301809301809302	10750.596658711216	1053.4798534798533	
1.7127118146892976E12	3.0	0.09301809301809302	10750.596658711216	1060.07326007326	
1.7127118147087988E12	3.0	0.09301809301809302	10750.596658711216	1060.07326007326	
1.7127118147283E12	3.0	0.09301809301809302	10750.596658711216	1058.6080586080586	
1.7127118147478013E12	3.0	0.09257409257409258	10802.158273381294	1057.8754578754579	
1.7127118147673027E12	3.0	0.09346209346209346	10699.524940617577	1061.5384615384614	
1.712711814786804E12	3.0	0.09346209346209346	10699.524940617577	1058.6080586080586	
1.7127118148063052E12	3.0	0.09346209346209346	10699.524940617577	1055.6776556776556	
1.7127118148258064E12	3.0	0.09346209346209346	10699.524940617577	1050.5494505494505	
1.7127118148453076E12	3.0	0.0939060939060939	10648.936170212766	1051.2820512820513	
1.7127118148648088E12	3.0	0.0939060939060939	10648.936170212766	1051.2820512820513	
1.71271181488431E12	3.0	0.0939060939060939	10648.936170212766	1091.5750915750914	
1.7127118149038113E12	3.0	0.0939060939060939	10648.936170212766	1234.4322344322343	
1.7127118149233125E12	3.0	0.0939060939060939	10648.936170212766	1484.9816849816848	
1.7127118149428137E12	3.0	0.0939060939060939	10648.936170212766	1753.8461538461538	
1.7127118149623152E12	3.0	0.0939060939060939	10648.936170212766	1942.8571428571427	
1.7127118149818164E12	3.0	0.0939060939060939	10648.936170212766	2010.2564102564102	
1.7127118150013176E12	3.0	0.0939060939060939	10648.936170212766	1969.230769230769	
1.7127118150208188E12	3.0	0.09346209346209346	10699.524940617577	1881.3186813186812	
1.71271181504032E12	3.0	0.09346209346209346	10699.524940617577	1788.278388278388	
1.7127118150598213E12	3.0	0.09346209346209346	10699.524940617577	1705.4945054945053	
1.7127118150793225E12	3.0	0.09346209346209346	10699.524940617577	1638.095238095238	
1.7127118150988237E12	3.0	0.09301809301809302	10750.596658711216	1572.8937728937728	
1.712711815118325E12	3.0	0.09301809301809302	10750.596658711216	1508.4249084249084	
1.7127118151378264E12	3.0	0.09301809301809302	10750.596658711216	1448.3516483516482	
1.7127118151573276E12	3.0	0.09301809301809302	10750.596658711216	1396.3369963369962	
1.7127118151768289E12	3.0	0.09301809301809302	10750.596658711216	1353.8461538461538	
1.71271181519633E12	3.0	0.09257409257409258	10802.158273381294	1328.937728937729	
1.7127118152158313E12	3.0	0.09257409257409258	10802.158273381294	1314.2857142857142	
1.7127118152353325E12	3.0	0.09257409257409258	10802.158273381294	1311.3553113553112	
1.7127118152548337E12	3.0	0.09257409257409258	10802.158273381294	1318.6813186813185	
1.712711815274335E12	3.0	0.09257409257409258	10802.158273381294	1326.7399267399267	
1.7127118152938362E12	3.0	0.09257409257409258	10802.158273381294	1320.14652014652	
1.7127118153133374E12	3.0	0.09257409257409258	10802.158273381294	1298.168498168498	
1.7127118153328389E12	3.0	0.09257409257409258	10802.158273381294	1267.3992673992673	
1.71271181535234E12	3.0	0.09257409257409258	10802.158273381294	1224.9084249084249	
1.7127118153718413E12	3.0	0.09257409257409258	10802.158273381294	1191.2087912087911	
1.7127118153913425E12	3.0	0.09301809301809302	10750.596658711216	1175.8241758241757	
1.7127118154108438E12	3.0	0.09301809301809302	10750.596658711216	1162.6373626373625	
1.712711815430345E12	3.0	0.09301809301809302	10750.596658711216	1146.5201465201465	
1.7127118154498462E12	3.0	0.09301809301809302	10750.596658711216	1130.4029304029302	
1.7127118154693474E12	3.0	0.09301809301809302	10750.596658711216	1121.6117216117216	
1.7127118154888486E12	3.0	0.09346209346209346	10699.524940617577	1101.098901098901	
1.71271181550835E12	3.0	0.09346209346209346	10699.524940617577	1082.7838827838827	
1.7127118155278513E12	3.0	0.09346209346209346	10699.524940617577	1068.131868131868	
1.7127118155473525E12	3.0	0.09346209346209346	10699.524940617577	1057.8754578754579	
1.7127118155668538E12	3.0	0.09346209346209346	10699.524940617577	1045.4212454212454	
1.712711815586355E12	3.0	0.0939060939060939	10648.936170212766	1045.4212454212454	
1.7127118156058562E12	3.0	0.0939060939060939	10648.936170212766	1056.4102564102564	
1.7127118156253574E12	3.0	0.0939060939060939	10648.936170212766	1060.8058608058607	
1.7127118156448586E12	3.0	0.0939060939060939	10648.936170212766	1049.084249084249	
1.7127118156643599E12	3.0	0.0939060939060939	10648.936170212766	1035.8974358974358	
1.712711815683861E12	3.0	0.0939060939060939	10648.936170212766	1031.5018315018315	
1.7127118157033625E12	3.0	0.0939060939060939	10648.936170212766	1035.8974358974358	
1.7127118157228638E12	3.0	0.0939060939060939	10648.936170212766	1050.5494505494505	
1.712711815742365E12	3.0	0.0939060939060939	10648.936170212766	1092.3076923076922	
1.7127118157618662E12	3.0	0.0939060939060939	10648.936170212766	1191.9413919413919	
1.7127118157813674E12	3.0	0.09346209346209346	10699.524940617577	1375.091575091575	
1.7127118158008687E12	3.0	0.09346209346209346	10699.524940617577	1594.139194139194	
1.7127118158203699E12	3.0	0.09346209346209346	10699.524940617577	1758.2417582417581	
1.712711815839871E12	3.0	0.09346209346209346	10699.524940617577	1831.5018315018315	
1.7127118158593723E12	3.0	0.09346209346209346	10699.524940617577	1813.186813186813	
1.7127118158788738E12	3.0	0.09301809301809302	10750.596658711216	1738.4615384615383	
1.712711815898375E12	3.0	0.09301809301809302	10750.596658711216	1647.6190476190475	
1.7127118159178762E12	3.0	0.09301809301809302	10750.596658711216	1567.032967032967	
1.7127118159373774E12	3.0	0.09301809301809302	10750.596658711216	1507.6923076923076	
1.7127118159568787E12	3.0	0.09301809301809302	10750.596658711216	1446.153846153846	
1.71271181597638E12	3.0	0.09301809301809302	10750.596658711216	1380.2197802197802	
1.712711815995881E12	3.0	0.09257409257409258	10802.158273381294	1323.076923076923	
1.7127118160153823E12	3.0	0.09257409257409258	10802.158273381294	1273.9926739926739	
1.7127118160348835E12	3.0	0.09257409257409258	10802.158273381294	1236.6300366300366	
1.7127118160543848E12	3.0	0.09257409257409258	10802.158273381294	1216.117216117216	
1.7127118160738862E12	3.0	0.09257409257409258	10802.158273381294	1208.058608058608	
1.7127118160933875E12	3.0	0.09257409257409258	10802.158273381294	1204.3956043956043	
1.7127118161128887E12	3.0	0.09301809301809302	10750.596658711216	1218.3150183150183	
1.71271181613239E12	3.0	0.09257409257409258	10802.158273381294	1235.8974358974358	
1.712711816151891E12	3.0	0.09301809301809302	10750.596658711216	1232.2344322344322	
1.7127118161713923E12	3.0	0.09301809301809302	10750.596658711216	1220.5128205128203	
1.7127118161908936E12	3.0	0.09301809301809302	10750.596658711216	1210.989010989011	
1.7127118162103948E12	3.0	0.09301809301809302	10750.596658711216	1196.3369963369962	
1.712711816229896E12	3.0	0.09301809301809302	10750.596658711216	1178.7545787545787	
1.7127118162493975E12	3.0	0.09301809301809302	10750.596658711216	1158.2417582417581	
1.7127118162688987E12	3.0	0.09346209346209346	10699.524940617577	1142.857142857143	
1.7127118162884E12	3.0	0.09346209346209346	10699.524940617577	1131.135531135531	
1.7127118163079011E12	3.0	0.09346209346209346	10699.524940617577	1129.6703296703297	
1.7127118163274023E12	3.0	0.09346209346209346	10699.524940617577	1129.6703296703297	
1.7127118163469036E12	3.0	0.09346209346209346	10699.524940617577	1116.4835164835165	
1.7127118163664048E12	3.0	0.0939060939060939	10648.936170212766	1099.6336996336995	
1.712711816385906E12	3.0	0.0939060939060939	10648.936170212766	1089.3772893772893	
1.7127118164054072E12	3.0	0.0939060939060939	10648.936170212766	1089.3772893772893	
1.7127118164249084E12	3.0	0.0939060939060939	10648.936170212766	1088.6446886446886	
1.71271181644441E12	3.0	0.0939060939060939	10648.936170212766	1087.9120879120878	
1.7127118164639111E12	3.0	0.0939060939060939	10648.936170212766	1079.8534798534797	
